idx,og Index,data (B),bandwidth (GB/s)
0,0,16785408,11.907171014315924
1,1,16785408,11.561018446900848
2,2,16785408,11.924494952903474
3,3,16785408,10.33119205579262
4,4,16785408,11.49287951770107
5,6,16785408,12.065763822996637
6,8,16793600,11.883048880586454
7,9,16793600,10.504226122081855
8,10,16793600,11.535896148358702
9,11,16793600,10.838083793535846
10,12,16793600,11.861285900243885
11,14,16793600,12.048372562861948
12,16,16793600,11.791999730365859
13,17,16793600,11.824405438764611
14,18,16793600,11.775066610573552
15,19,16793600,10.693005255577445
16,20,16793600,11.559017852410802
17,22,16793600,11.890318158903861
18,24,16793600,11.643657057913217
19,25,16793600,11.75896420061436
20,26,16793600,11.886539380319572
21,27,16793600,10.534589518228962
22,28,16793600,11.725335468902404
23,30,16793600,12.09669519117181
24,32,16793600,11.884932654690394
25,33,16793600,10.900893240233653
26,34,16793600,11.737136123689465
27,35,16793600,10.51011640008987
28,36,16793600,11.745542161933438
29,38,16793600,12.044224888261585
30,40,16793600,11.811905311193513
31,41,16793600,11.263298104227895
32,42,16793600,12.056122536885693
33,43,16793600,11.120330081825172
34,44,16793600,11.807379190141019
35,46,16793600,12.178100072516315
36,48,16793600,11.687732321309635
37,49,16793600,10.557265129202905
38,50,16793600,11.831878209210965
39,51,16793600,10.781085593997783
40,52,16793600,11.80419222580466
41,54,16793600,12.205289811676192
42,56,16793600,11.881964299485839
43,57,16793600,11.507060696154698
44,58,16793600,11.960776493245284
45,59,16793600,10.64398464907416
46,60,16793600,11.623791063020112
47,62,16793600,12.20983324317879
48,64,16793600,11.986455853047147
49,65,16793600,10.246422757679815
50,66,16793600,11.44957030704042
51,67,16793600,9.946758638172557
52,68,16793600,11.27660917433164
53,70,16793600,11.826004167438349
54,72,16793600,12.071097105857863
55,73,16793600,11.036150595719233
56,74,16793600,11.757655190182538
57,75,16793600,10.164060830877595
58,76,16793600,11.540716113199846
59,78,16793600,12.155534323518342
60,80,16793600,11.912449849335202
61,81,16793600,10.968108521157577
62,82,16793600,11.40304835444946
63,83,16793600,11.587858748130918
64,84,16793600,11.674212611425206
65,86,16793600,12.112609415661225
66,88,16793600,11.848440207483167
67,89,16793600,10.953228846668102
68,90,16793600,11.555709078748453
69,91,16793600,10.817976795614989
70,92,16793600,11.456568855318658
71,94,16793600,12.204163351028846
72,96,16793600,11.883048880586454
73,97,16793600,9.854300283419102
74,98,16793600,11.20223809958983
75,99,16793600,11.567425563145362
76,100,16793600,11.671883948379492
77,102,16793600,12.096982741543831
78,104,16793600,12.05113926666705
79,105,16793600,11.181227554119788
80,106,16793600,11.84790522578861
81,107,16793600,10.430107794011333
82,108,16793600,11.442081344684388
83,110,16793600,12.099771817970254
84,112,16793600,11.783527087180811
85,113,16793600,11.152958021667564
86,114,16793600,11.819620164073806
87,115,16793600,10.40364167106512
88,116,16793600,11.611960175158497
89,118,16793600,11.974695241952505
90,120,16793600,11.856738606132835
91,121,16793600,11.14773860273569
92,122,16793600,12.046989687290173
93,123,16793600,10.658035445126691
94,124,16793600,11.770040699210616
95,126,16793600,11.956688899394534
96,128,16793600,11.909746452663411
97,129,16793600,11.178131502261106
98,130,16793600,11.731101711786916
99,131,16793600,10.542207814627488
100,132,16793600,11.457069079025915
101,134,16793600,11.856462363625196
102,136,16793600,11.879283123291703
103,137,16793600,10.830486022703674
104,138,16793600,11.6420991771861
105,139,16793600,10.860519770445283
106,140,16793600,11.556726961177308
107,142,16793600,11.825204749065769
108,144,16793600,11.88061935765025
109,145,16793600,11.349281546469367
110,146,16793600,11.740549625172942
111,147,16793600,10.904970470683347
112,148,16793600,11.585300653094281
113,150,16793600,12.10730002364707
114,152,16793600,11.940909789020415
115,153,16793600,11.586067963007041
116,154,16793600,11.860222040170626
117,155,16793600,11.565641087446842
118,156,16793600,11.852445745573577
119,158,16793600,11.85833771717678
120,160,16793600,11.855667191903446
121,161,16793600,10.144021474862535
122,162,16793600,11.207254390847124
123,163,16793600,11.952059669200331
124,164,16793600,11.856470734421155
125,166,16793600,12.07442984095942
126,168,16793600,11.978795158722459
127,169,16793600,11.284853583701686
128,170,16793600,11.882233324394678
129,171,16793600,10.474239766884297
130,172,16793600,11.766090655845211
131,174,16793600,12.010871120011442
132,176,16793600,12.114287033350069
133,177,16793600,11.442330818922198
134,178,16793600,11.915957645332522
135,179,16793600,10.448589525030176
136,180,16793600,11.470340942388065
137,182,16793600,11.855658822242068
138,184,16793600,11.89436049114099
139,185,16793600,11.138747501117615
140,186,16793600,11.970598130734533
141,187,16793600,10.944313272625728
142,188,16793600,11.690596273594592
143,190,16793600,11.988911741546202
144,192,16793600,11.751073393827776
145,193,16793600,11.13898392323907
146,194,16793600,11.776643765922936
147,195,16793600,11.08838300136941
148,196,16793600,11.641582666286785
149,198,16793600,11.946890063797941
150,200,16793600,11.896787210046982
151,201,16793600,11.490432280166866
152,202,16793600,11.781675319208643
153,203,16793600,11.123873113023203
154,204,16793600,11.372892673472235
155,206,16793600,11.687211753464526
156,208,16793600,12.06194156347861
157,209,16793600,11.657097956245623
158,210,16793600,11.991111771190942
159,211,16793600,10.421408766751973
160,212,16793600,11.410726637485748
161,214,16793600,11.758173819831136
162,216,16793600,12.05363038672447
163,217,16793600,11.30503797718878
164,218,16793600,11.891926341095536
165,219,16793600,10.841890177571331
166,220,16793600,11.582743687240539
167,222,16793600,11.907846361440178
168,224,16793600,11.933307183746326
169,225,16793600,11.683308972235306
170,226,16793600,11.99412635199607
171,227,16793600,11.159591137502675
172,228,16793600,11.730315072004784
173,230,16793600,11.936021288330652
174,232,16793600,12.078598348629132
175,233,16793600,11.249777263306257
176,234,16793600,12.072485521873904
177,235,16793600,10.21968525978847
178,236,16793600,11.627654175330147
179,238,16793600,12.02683579404502
180,240,16793600,11.96486688287631
181,241,16793600,10.803946229883653
182,242,16793600,11.76054528099857
183,243,16793600,10.726875890654034
184,244,16793600,11.641332497795622
185,246,16793600,12.075541161649573
186,248,16793600,12.026560181498393
187,249,16793600,11.58453344480798
188,250,16793600,11.714342913225721
189,251,16793600,11.519690057119652
190,252,16793600,11.849234410025451
191,254,16793600,12.056122536885693
192,256,16793600,11.882779818746851
193,257,16793600,11.223080238848661
194,258,16793600,11.589394147471893
195,259,16793600,11.250018422226718
196,260,16793600,11.980982929153992
197,262,16793600,11.876594757596845
198,264,16801792,11.798812379566636
199,265,16801792,12.045953278157281
200,266,16801792,12.000251407022255
201,267,16801792,10.741109962531588
202,268,16801792,11.422004864711266
203,270,16801792,11.881043836375877
204,272,16801792,11.824844868247977
205,273,16801792,10.658688727799145
206,274,16801792,11.604529427812675
207,275,16801792,10.942121698583211
208,276,16801792,11.616347435549976
209,278,16801792,11.93506595906851
210,280,16801792,11.707774457057607
211,281,16801792,11.734201199135393
212,282,16801792,11.671080133564043
213,283,16801792,10.339844278860474
214,284,16801792,11.29984228985712
215,286,16801792,11.580981369704764
216,288,16801792,11.774989925748386
217,289,16801792,11.150571073990749
218,290,16801792,11.641322008274157
219,291,16801792,10.161147071150078
220,292,16801792,11.165984595243
221,294,16801792,11.93315871112904
222,296,16801792,11.878355984638965
223,297,16801792,11.811810128531127
224,298,16801792,11.895040297231017
225,299,16801792,9.745830331589712
226,300,16801792,11.023676725792324
227,302,16801792,11.904749488433785
228,304,16801792,11.63177989481285
229,305,16801792,10.164300492432034
230,306,16801792,11.414315149596499
231,307,16801792,11.825377509545511
232,308,16801792,11.820053254916582
233,310,16801792,12.16597250783463
234,312,16801792,11.927466024545243
235,313,16801792,9.915708938884437
236,314,16801792,11.134499017551533
237,315,16801792,11.785834937345328
238,316,16801792,11.879430979382901
239,318,16801792,12.150487992548495
240,320,16801792,12.042085466753054
241,321,16801792,11.669005080337392
242,322,16801792,11.891529675049066
243,323,16801792,10.20281519085731
244,324,16801792,11.5260605245719
245,326,16801792,12.016455066112062
246,328,16801792,12.075596672090523
247,329,16801792,11.03782021045827
248,330,16801792,11.942115348530423
249,331,16801792,10.09880263815101
250,332,16801792,11.877549866250432
251,334,16801792,12.053696359598023
252,336,16801792,12.043742796029429
253,337,16801792,10.780143809745622
254,338,16801792,11.958707003069074
255,339,16801792,10.82838771547321
256,340,16801792,11.970430490564317
257,342,16801792,11.744962961875583
258,344,16801792,11.970703403306981
259,345,16801792,11.192404898020088
260,346,16801792,12.12523454053149
261,347,16801792,10.764452138213638
262,348,16801792,11.79641834343996
263,350,16801792,11.806763570181264
264,352,16801792,11.815805611346464
265,353,16801792,11.700730033754398
266,354,16801792,12.165690618935905
267,355,16801792,11.386838083555567
268,356,16801792,11.774998177873213
269,357,16801792,12.022783607251828
270,358,16801792,12.107619492341307
271,359,16801792,12.14965330178617
272,360,16801792,12.016455066112062
273,361,16801792,12.240574487972369
274,362,16801792,11.956528422191226
275,363,16801792,11.381407879023119
276,364,16801792,11.615054546912557
277,366,16801792,12.03297830284349
278,368,16801792,11.723205564021413
279,369,16801792,11.552951223553956
280,370,16801792,12.007386613763572
281,371,16801792,10.581359773834961
282,372,16801792,11.557536636235067
283,374,16801792,11.976164272639664
284,376,16801792,11.943736782430362
285,377,16801792,11.217752068720097
286,378,16801792,11.900971809038108
287,379,16801792,10.365155078260912
288,380,16801792,11.993946558390013
289,382,16801792,12.130837342821332
290,384,16801792,11.891538091328597
291,385,16801792,11.945103882882217
292,386,16801792,11.866543870453762
293,387,16801792,11.367116679802855
294,388,16801792,11.722412187217655
295,390,16801792,12.033529860024867
296,392,16801792,11.795101623619137
297,393,16801792,11.949725470114648
298,394,16801792,11.957072992991625
299,395,16801792,10.767101042951666
300,396,16801792,11.432209127237122
301,398,16801792,11.548885410845584
302,400,16801792,11.767345177864062
303,401,16801792,11.451407929935764
304,402,16801792,11.848326567109028
305,403,16801792,11.725823651255366
306,404,16801792,11.806232604352802
307,406,16801792,11.76285532460968
308,408,16801792,11.86868139591888
309,409,16801792,11.277028927192394
310,410,16801792,11.598889662832768
311,411,16801792,10.79654727258824
312,412,16801792,11.335941221317393
313,414,16801792,11.854746861120224
314,416,16801792,11.783181722868084
315,417,16801792,11.921508080217516
316,418,16801792,11.881043836375877
317,419,16801792,12.114323948617672
318,420,16801792,11.780802285231886
319,422,16801792,11.797743641308202
320,424,16801792,11.8531411353957
321,425,16801792,12.207561632529101
322,426,16801792,11.92638231903645
323,427,16801792,11.214644763953569
324,428,16801792,11.396724469481402
325,430,16801792,11.946190993532682
326,432,16801792,11.882379815121404
327,433,16801792,11.825377509545511
328,434,16801792,11.872983927955634
329,435,16801792,12.0167300815334
330,436,16801792,11.970703403306981
331,438,16801792,11.956528422191226
332,440,16801792,11.836574071791027
333,441,16801792,12.069489859836446
334,442,16801792,11.977803505129945
335,443,16801792,11.222787309450048
336,444,16801792,11.32079509322826
337,446,16801792,11.8778185602226
338,448,16801792,12.071423593523797
339,449,16801792,12.010407910011608
340,450,16801792,11.779224785332504
341,451,16801792,11.563382947343355
342,452,16801792,12.069212424216303
343,454,16801792,12.00079139635029
344,456,16801792,12.006288337420752
345,457,16801792,11.321519778876567
346,458,16801792,12.039048214111698
347,459,16801792,11.102941040419646
348,460,16801792,11.546599648553496
349,462,16801792,11.203151483792503
350,464,16801792,10.363313834288547
351,465,16801792,10.039905563247348
352,466,16801792,10.631064834353406
353,467,16801792,9.984728560230907
354,468,16801792,10.289793368690518
355,470,16801792,10.845617482303519
356,472,16801792,10.519456728009011
357,473,16801792,10.16193370650264
358,474,16801792,10.054908306622846
359,475,16801792,9.883052431648041
360,476,16801792,10.055479981255711
361,478,16801792,10.755418424371227
362,480,16801792,10.067053807456974
363,481,16801792,10.466815013792296
364,482,16801792,10.062803162018406
365,483,16801792,9.914778584710092
366,484,16801792,10.520082448613627
367,486,16801792,10.250614208642421
368,488,16801792,10.452853946900188
369,489,16801792,10.080770760723027
370,490,16801792,10.095895975291729
371,491,16801792,10.589255698838395
372,492,16801792,10.493807128157565
373,494,16801792,10.396968369359938
374,496,16801792,11.822190699742753
375,497,16801792,11.325434685162904
376,498,16801792,11.783446164160964
377,499,16801792,11.298375762727137
378,500,16801792,12.158366089881266
379,502,16801792,12.054526565916879
380,504,16801792,11.933701155172708
381,505,16801792,12.000517109983722
382,506,16801792,11.973979327134135
383,507,16801792,11.36637076664759
384,508,16801792,11.910690689668861
385,510,16801792,12.164845030611595
386,512,16801792,11.84726554787759
387,513,16801792,11.322496344167178
388,514,16801792,11.98929070929071
389,515,16801792,10.826831698097646
390,516,16801792,11.89692695499476
391,517,16801792,11.713528798264353
392,518,16785408,12.109495749334842
393,519,16785408,12.14876061769355
394,520,16785408,12.188280945935741
395,521,16785408,12.226349126804227
396,522,16785408,11.673451731780712
397,523,16785408,12.304935049702372
398,524,16785408,11.625588277868701
399,525,16785408,11.619407711887227
400,526,16785408,11.37252813590603
401,527,16785408,11.921513814344248
402,528,16785408,11.574786404352594
403,529,16785408,10.55721228443464
404,530,16785408,11.266032311953785
405,531,16785408,10.877951508262441
406,532,16785408,11.641585214540497
407,533,16785408,11.99924510605688
408,534,16785408,11.559999311306624
409,535,16785408,12.027308527896086
410,536,16785408,11.563821996562284
411,537,16785408,11.432005568412608
412,538,16785408,11.77117146431637
413,539,16785408,11.44723182860054
414,540,16785408,11.713334873208064
415,541,16785408,11.203230403166328
416,542,16785408,11.618378256406565
417,543,16785408,11.616577148184058
418,544,16785408,11.669556233936067
419,545,16785408,10.97215291482195
420,546,16785408,11.374007720720519
421,547,16785408,11.868383987510393
422,548,16785408,12.16369170120873
423,549,16785408,11.621209698022053
424,550,16785408,11.442736918887045
425,551,16785408,11.510785999219603
426,552,16785408,11.870255637438802
427,553,16785408,11.223358460742269
428,554,16785408,11.285180366885507
429,555,16785408,12.165666475325715
430,556,16785408,12.004462676576097
431,557,16785408,11.980882445311117
432,558,16785408,11.373267880192294
433,559,16785408,11.125285498972005
434,560,16785408,11.501944010843154
435,561,16785408,11.228891902215688
436,562,16785408,11.463743420544905
437,563,16785408,11.68411270770381
438,564,16785408,11.989371610772388
439,565,16785408,12.050241501501846
440,566,16785408,11.615033785537092
441,567,16785408,11.99293516470326
442,568,16785408,11.777770761105463
443,569,16785408,11.405168178825429
444,570,16785408,11.528494985896224
445,571,16785408,11.740600927894109
446,572,16785408,11.95875771582949
447,573,16785408,12.177811311993963
448,574,16785408,11.626103621839782
449,575,16785408,11.781747123596894
450,576,16785408,11.714904471934814
451,577,16785408,9.911848401122194
452,578,16785408,11.265306451169087
453,579,16785408,11.004147843377119
454,580,16785408,12.030066910917316
455,581,16785408,12.165957456061196
456,582,16785408,11.76482693123158
457,583,16785408,11.352837058114156
458,584,16785408,11.803221142757492
459,585,16785408,11.623784933697216
460,586,16785408,11.616834415168718
461,587,16785408,11.958212459890914
462,588,16785408,12.112012284175465
463,589,16785408,11.54346350504262
464,590,16785408,11.814644453657243
465,591,16785408,10.26246322477458
466,592,16785408,11.28007644863305
467,593,16785408,11.373267880192294
468,594,16785408,11.749542384472642
469,595,16785408,12.156644166980504
470,596,16785408,12.19112252197944
471,597,16785408,11.764043620868492
472,598,16785408,11.74218605718379
473,599,16785408,11.637202646714623
474,600,16785408,11.64106849719782
475,601,16785408,11.03540843496269
476,602,16785408,11.640035200108734
477,603,16785408,12.200187232162067
478,604,16785408,12.000892269854434
479,605,16785408,12.145103873025429
480,606,16785408,11.864357325824017
481,607,16785408,11.123162254398462
482,608,16785408,11.714642842935477
483,609,16785408,10.453697504688012
484,610,16785408,11.371788487842949
485,611,16785408,11.934541855557514
486,612,16785408,11.974591796551744
487,613,16785408,11.903396551821952
488,614,16785408,11.783062145805971
489,615,16785408,11.648832160960254
490,616,16785408,11.884248743988989
491,617,16785408,10.991703217475237
492,618,16785408,11.804009679263633
493,619,16785408,11.913128892876001
494,620,16785408,11.911235247032376
495,621,16785408,11.472769835926634
496,622,16785408,11.825306738957678
497,623,16785408,11.54346350504262
498,624,16785408,11.87268210702625
499,625,16785408,10.187514907640905
500,626,16785408,11.546258545984085
501,627,16785408,11.752973006279303
502,628,16785408,12.033378641110787
503,629,16785408,11.696879444584201
504,630,16785408,11.758497470776097
505,631,16785408,10.961605599458235
506,632,16785408,11.627907685593453
507,633,16785408,11.859260808374264
508,634,16785408,11.785180031187666
509,635,16785408,12.10306935319193
510,636,16785408,12.057997666760533
511,637,16785408,12.243471765934727
512,638,16785408,11.752973006279303
513,639,16785408,11.490110257198344
514,640,16785408,11.721710930151195
515,641,16785408,11.052615359897596
516,642,16785408,11.686976283360336
517,643,16785408,11.830365770371733
518,644,16785408,11.978146568703009
519,645,16785408,11.400954029835336
520,646,16785408,11.71228870770229
521,647,16785408,10.881794878776445
522,648,16785408,11.661254521795977
523,649,16785408,11.48784549103614
524,650,16785408,11.784915253880293
525,651,16785408,12.100835683512985
526,652,16785408,12.008585017427585
527,653,16785408,11.189361931896206
528,654,16785408,11.618635603174921
529,655,16785408,10.579569856553722
530,656,16785408,11.498926176427672
531,657,16785408,9.957382135283039
532,658,16785408,11.12977794693244
533,659,16785408,10.518893127259533
534,660,16785408,11.759024665679824
535,661,16785408,10.453489175903938
536,662,16785408,11.82290792090924
537,663,16785408,11.24043431152088
538,664,16785408,11.56331215912825
539,665,16785408,10.349939696187171
540,666,16785408,11.46925787471652
541,667,16785408,10.987558863998471
542,668,16785408,12.098881898753886
543,669,16785408,11.241397877547085
544,670,16785408,11.775663798764164
545,671,16785408,10.948571339117638
546,672,16785408,11.743229355051074
547,673,16785408,10.159699205159804
548,674,16785408,11.487090767368285
549,675,16785408,11.95058409418412
550,676,16785408,12.156644166980504
551,677,16785408,12.000343165010895
552,678,16785408,11.669304739075544
553,679,16785408,10.913264251264893
554,680,16785408,11.679950010889888
555,681,16785408,11.768530515404937
556,682,16785408,11.798168710063099
557,683,16785408,12.16115364775026
558,684,16785408,11.93182709969462
559,685,16785408,11.847466778844899
560,686,16785408,11.913391007365043
561,687,16785408,9.044641779463747
