idx,og Index,data (B),bandwidth (GB/s)
0,0,11550720,11.644082251492467
1,2,11550720,11.753287917253871
2,4,11550720,11.70904977100351
3,6,11550720,11.544647515406895
4,8,11550720,11.637324972444935
5,10,11550720,11.144717925957373
6,12,11550720,11.262951586953342
7,14,11550720,11.901701167427435
8,16,11550720,11.577603194617902
9,18,11550720,11.194488971935082
10,20,11550720,11.847013815526314
11,22,11550720,11.983093997622204
12,24,11632640,11.60609685648921
13,25,11632640,10.946275676270792
14,26,11632640,11.556666474596005
15,28,11632640,11.529165737505885
16,30,11632640,11.694597980098562
17,32,11632640,11.200588499230676
18,34,11632640,11.184381186429107
19,36,11632640,11.922426498471857
20,38,11632640,11.644400844853301
21,40,11632640,11.685575657729515
22,42,11632640,11.135048105317669
23,44,11632640,11.94004848838188
24,46,11632640,11.624293757082414
25,48,11632640,11.324103476674527
26,50,11632640,11.509465698098944
27,52,11632640,12.042506716081846
28,54,11632640,11.336452505391632
29,56,11632640,11.750924809128689
30,58,11632640,11.8559346736434
31,60,11632640,11.267232386474253
32,62,11632640,11.50473040733129
33,64,11632640,11.581334687335106
34,66,11632640,11.615750698484403
35,68,11632640,11.535396606606309
36,70,11632640,11.31986092284098
37,72,11632640,11.766138608653787
38,74,11632640,11.736117346645372
39,76,11632640,11.245969819689613
40,78,11632640,11.740665866638945
41,80,11632640,11.685951309875653
42,82,11632640,11.094945649011935
43,84,11632640,11.683322251928868
44,86,11632640,11.689345012656396
45,88,11714560,11.044646939862632
46,89,11714560,11.336389386457174
47,90,11714560,11.316414585633652
48,91,11714560,11.38610502825007
49,92,11714560,11.658807582142195
50,93,11714560,11.684111206196652
51,94,11714560,11.44555511806023
52,95,11714560,11.731664767230622
53,96,11714560,11.439843595888338
54,97,11714560,11.555395975828933
55,98,11714560,11.430545242363007
56,99,11714560,11.58684974214211
57,100,11714560,11.66772574884414
58,101,11714560,11.336751422106866
59,102,11714560,11.856290091756861
60,103,11714560,11.730901145295396
61,104,11714560,11.37407700485953
62,105,11714560,11.544827939631537
63,106,11714560,11.523024290247506
64,107,11714560,11.86897536955795
65,108,11714560,11.772031055613505
66,109,11714560,11.33112602639289
67,110,11714560,11.691947773007005
68,111,11714560,11.264541564498293
69,112,11714560,11.592341938937778
70,113,11714560,11.975763374971503
71,114,11714560,11.73279275994896
72,115,11714560,11.444135087873548
73,116,11714560,11.30174129569225
74,117,11714560,11.699047063593675
75,118,11714560,11.796688545654849
76,119,11714560,11.316764414080652
77,120,11714560,11.728657846731771
78,121,11714560,11.331487725936976
79,122,11714560,11.69232120506796
80,123,11714560,11.94332239719589
81,124,11714560,11.701664765428498
82,125,11714560,11.85705812454073
83,126,11714560,11.179914145723224
84,127,11714560,12.002450784517436
85,128,11714560,11.963227649931476
86,129,11714560,11.370191024442704
87,130,11714560,11.622901796433327
88,131,11714560,11.482892640968462
89,132,11714560,11.481823438893626
90,133,11714560,10.209015993418575
91,134,11714560,11.641012085642908
92,135,11714560,10.672429296486028
93,136,11714560,11.65769376979096
94,137,11714560,11.730912892572245
95,138,11714560,11.605215658069667
96,139,11714560,11.862437141404751
97,140,11714560,11.491194167766945
98,141,11714560,11.74220114148706
99,142,11714560,11.768246741635341
100,143,11714560,11.66846954529608
101,144,11714560,11.65398259845324
102,145,11714560,11.576590198019998
103,146,11714560,11.950730332837535
104,147,11714560,11.877832688131049
105,148,11714560,11.696056838082153
106,149,11714560,11.591607815896783
107,150,11714560,11.748984524657246
108,151,11714560,11.689707681469196
109,152,10977280,11.412827745241657
110,153,10977280,9.944773804519562
111,154,10977280,11.20335244906978
112,155,10977280,10.38179085816643
113,156,10977280,11.485033323219536
114,157,10977280,10.31095514562432
115,158,10977280,11.612556516808528
116,159,10977280,10.034957363717474
117,160,10977280,11.724894444462246
118,161,10977280,10.726546964700134
119,162,10977280,11.622798612118446
120,163,10977280,10.234357737478685
121,164,10977280,11.688128605531196
122,165,10977280,10.516096584295711
123,166,11059200,11.315403362943773
124,167,11059200,9.88855348431308
125,168,11059200,10.973017917277701
126,169,11059200,10.682007628625602
127,170,11059200,11.525210355514888
128,171,11059200,10.775933047968064
129,172,11059200,11.850048539424085
130,173,11059200,10.87701008114089
131,174,11059200,11.222441636037805
132,175,11059200,11.279580442689262
133,176,11059200,11.626796974711464
134,177,11059200,9.835365766893863
135,178,11059200,11.56223830179625
136,179,11059200,10.445989101759418
137,180,11059200,11.516772904259119
138,181,11059200,10.332620461750189
139,182,11059200,11.787816740550145
140,183,11059200,10.800516821605722
141,184,11059200,11.423117683149785
142,185,11059200,10.530334985998211
143,186,11059200,11.661332925614083
144,187,11059200,9.901302124367918
145,188,11059200,11.976128311947647
146,189,11059200,10.833367618622201
147,190,11059200,11.795863469535993
148,191,11059200,11.449229450459349
149,192,11059200,11.483086661004313
150,193,11059200,11.040321051002785
151,194,11059200,11.112383869197982
152,195,11059200,10.73210684750184
153,196,11059200,11.623668594275191
154,197,11059200,10.62290660291181
155,198,11059200,11.610781800200316
156,199,11059200,10.246840714958783
157,200,11059200,11.753328047849921
158,201,11059200,10.964303949318648
159,202,11059200,11.598714190574576
160,203,11059200,10.24562560739369
161,204,11059200,11.46519398417357
162,205,11059200,10.163360731667867
163,206,11059200,11.52405742855297
164,207,11059200,9.329312271969968
165,208,11059200,11.078898281143873
166,209,11059200,11.143197422168305
167,210,11059200,11.841940419808951
168,211,11059200,9.720835384290838
169,212,11059200,11.4435428294706
170,213,11059200,10.442832686353364
171,214,11059200,11.816028437446912
172,215,11059200,10.294455764614112
173,216,11059200,11.489588495451104
174,217,11059200,11.39187698355063
175,218,11059200,11.57539307896329
176,219,11059200,9.975906353199692
177,220,11059200,11.301342565815155
178,221,11059200,11.20643007836962
179,222,11059200,11.663681982420949
180,223,11059200,10.044038940268157
181,224,11059200,11.722232939525437
182,225,11059200,10.302434661909443
183,226,11059200,11.586271056637496
184,227,11059200,10.439362831858407
185,228,11059200,11.499899134637582
186,229,11059200,11.668407558636407
187,230,11141120,11.771930677272314
188,231,11141120,10.772454296607211
189,232,11141120,11.176729058781277
190,233,11141120,10.387109345500754
191,234,11141120,11.434788231357729
192,235,11141120,10.31907178443644
193,236,11141120,11.290905147689246
194,237,11141120,10.823357060073308
195,238,11141120,11.697585856793525
196,239,11141120,10.294662005889728
197,240,11141120,11.504322980827713
198,241,11141120,10.528776866236548
199,242,11141120,11.902740667063386
200,243,11141120,10.053855816572575
201,244,11141120,11.671691764217814
202,245,11141120,10.29373937467662
203,246,11141120,11.423169477570697
204,247,11141120,9.954974797860164
205,248,11141120,11.667389259959744
206,249,11141120,10.36885783714712
207,250,11141120,11.507353017122956
208,251,11141120,10.302877857512762
209,252,11141120,11.362031987941547
210,253,11141120,10.398888905482295
211,254,11141120,11.598591651935646
212,255,11141120,10.20593020358509
213,256,11141120,11.50849415026475
214,257,11141120,10.365770716199028
215,258,11141120,11.424657140923438
216,259,11141120,10.410714669502383
217,260,11141120,11.763987865515446
218,261,11141120,11.287976575243924
219,262,11141120,11.71293371082896
220,263,11141120,10.035019959936013
221,264,11141120,11.723175672120798
222,265,11141120,10.74586557251187
223,266,11141120,11.703471820999003
224,267,11141120,10.559112289703815
225,268,11141120,11.688933560233924
226,269,11141120,10.935896957691952
227,270,11141120,11.776310643488483
228,271,11141120,10.33592076466992
229,272,11141120,11.850477747486813
230,273,11141120,10.294357614425437
231,274,11141120,11.610969491440637
232,275,11141120,10.152657286578698
233,276,11141120,11.333540856664449
234,277,11141120,10.779802577216845
235,278,11141120,11.571606920662486
236,279,11141120,10.295879751777802
237,280,11141120,11.272991454029235
238,281,11141120,11.5689273650315
239,282,11141120,11.246045605499308
240,283,11141120,11.21055819747516
241,284,11141120,11.580459471426998
242,285,11141120,10.415376561214568
243,286,11141120,11.745335282961383
244,287,11141120,10.661624116963676
245,288,11141120,11.712133349312376
246,289,11141120,10.582863374150202
247,290,11141120,11.598978059937993
248,291,11141120,10.09700854081174
249,292,11141120,11.481169271482777
250,293,11141120,10.608660710289843
251,294,11223040,11.44632343117187
252,295,11223040,10.09484061308196
253,296,11223040,11.302826653345969
254,297,11223040,10.61743228017131
255,298,11223040,11.413160426382683
256,299,11223040,10.56784422584202
257,300,11223040,11.073700080711525
258,301,11223040,11.017000064788329
259,302,11223040,11.708851977394056
260,303,11223040,10.351381239929275
261,304,11223040,11.035708842400256
262,305,11223040,10.352288324453562
263,306,11223040,10.90327952147374
264,307,11223040,9.55496319100408
265,308,11223040,11.13452056153579
266,309,11223040,10.065578945857908
267,310,11223040,11.248438975206016
268,311,11223040,10.520610405083772
269,312,11223040,11.762639315981328
270,313,11223040,10.819525785817921
271,314,11223040,11.676095872026368
272,315,11223040,10.363003940014275
273,316,11223040,11.80144039520962
274,317,11223040,10.74922491497291
275,318,11223040,11.856497068900127
276,319,11223040,10.797541290370374
277,320,11223040,11.522651997232026
278,321,11223040,10.884341074445407
279,322,11223040,11.575896476393424
280,323,11223040,10.832558754573876
281,324,11223040,11.85287824413695
282,325,11223040,10.070203144067188
283,326,11223040,11.55111476145484
284,327,11223040,11.443323986744838
285,328,11223040,11.772114987234596
286,329,11223040,10.421201493486656
287,330,11223040,11.668727028867599
288,331,11223040,10.353520304285215
289,332,11223040,11.601948020398185
290,333,11223040,10.720321255064983
291,334,11223040,11.777649515694032
292,335,11223040,10.624830186035636
293,336,11223040,11.830500720495271
294,337,11223040,10.436086058580612
295,338,11223040,11.972251528395459
296,339,11223040,10.389096809967128
297,340,11223040,11.64121575225241
298,341,11223040,10.370051420413859
299,342,11223040,11.786357153809154
300,343,11223040,10.230301748616048
301,344,11223040,11.522651997232026
302,345,11223040,10.32242873750975
303,346,11223040,11.60577525640575
304,347,11223040,11.38352493452696
305,348,11223040,11.54693142651371
306,349,11223040,10.92843134772795
307,350,11223040,11.78992308160997
308,351,11223040,10.188684726559663
309,352,11223040,11.415760875093326
310,353,11223040,10.271047427122314
311,354,11223040,11.788734199286985
312,355,11223040,10.15799458387036
313,356,11223040,11.742173220240032
314,357,11223040,10.31727602085327
315,358,11304960,11.830258989929856
316,359,11304960,10.022838499184338
317,360,11304960,11.292515647756172
318,361,11304960,11.199793934950812
319,362,11304960,11.531366856867741
320,363,11304960,11.058499227711984
321,364,11304960,11.784470087875661
322,365,11304960,11.008200919609175
323,366,11304960,11.979070196222208
324,367,11304960,11.45917761230642
325,368,11304960,11.719186361120153
326,369,11304960,11.471084241992536
327,370,11304960,11.502082693195993
328,371,11304960,11.091144908454808
329,372,11304960,11.524971709942808
330,373,11304960,11.771119889878987
331,374,11304960,11.815224082448713
332,375,11304960,11.667709075146298
333,376,11304960,11.37798390067453
334,377,11304960,11.751163426466354
335,378,11304960,11.485628943277758
336,379,11304960,11.338544769607578
337,380,11304960,11.54531026918387
338,381,11304960,11.67542111187995
339,382,11304960,11.906801172042037
340,383,11304960,11.40811215006085
341,384,11304960,11.618592280006496
342,385,11304960,10.306478654436816
343,386,11304960,11.719963922495568
344,387,11304960,9.956457408581695
345,388,11304960,11.625486282288989
346,389,11304960,10.320319004425748
347,390,11304960,11.64810141972364
348,391,11304960,10.629927701191251
349,392,11304960,11.710652121443156
350,393,11304960,10.93933461902822
351,394,11304960,11.76602339266497
352,395,11304960,10.346018576225397
353,396,11304960,11.772296631684616
354,397,11304960,9.963758408190317
355,398,11304960,11.784470087875661
356,399,11304960,9.978956288397711
357,400,11304960,11.769563519950028
358,401,11304960,9.795502457765682
359,402,11304960,11.654633983404072
360,403,11304960,10.04649575566267
361,404,11304960,11.541550238335642
362,405,11304960,10.57835401913374
363,406,11304960,11.692810525118169
364,407,11304960,10.664593800646387
365,408,11304960,11.762497632925538
366,409,11304960,10.552759315958479
367,410,11304960,11.865224012653485
368,411,11304960,10.34178792352996
369,412,11304960,11.640425420184291
370,413,11304960,11.226130114337124
371,414,11304960,11.74842790825282
372,415,11304960,10.310388950653145
373,416,11304960,11.733989871678169
374,417,11304960,11.490111659277598
375,418,11304960,11.633142585478947
376,419,11304960,11.390456768504395
377,420,11304960,11.986805454678477
378,421,11304960,11.711028191512504
379,422,11386880,11.930755416412584
380,423,11386880,11.231093502033296
381,424,11386880,11.444951684848924
382,425,11386880,11.370347514713606
383,426,11386880,11.875014339436893
384,427,11386880,11.499691978307194
385,428,11386880,11.864732084711767
386,429,11386880,11.782220631054399
387,430,11386880,11.589959266263469
388,431,11386880,11.578268782982704
389,432,11386880,11.667100417835575
390,433,11386880,11.016227992949231
391,434,11386880,11.856417860095503
392,435,11386880,11.029192265633249
393,436,11386880,11.332326181761003
394,437,11386880,11.72746915932512
395,438,11386880,11.894464372637952
396,439,11386880,11.496348227825353
397,440,11386880,11.655265805708039
398,441,11386880,11.658690715337375
399,442,11386880,11.61909931898932
400,443,11386880,11.274864223935204
401,444,11386880,11.71549976850661
402,445,11386880,11.646861236521636
403,446,11386880,11.308545703909022
404,447,11386880,11.481881084089759
405,448,11386880,11.692402476716605
406,449,11386880,10.470655740116818
407,450,11386880,11.568858138518902
408,451,11386880,11.50265421467066
409,452,11386880,11.765858295704646
410,453,11386880,11.793935903783172
411,454,11386880,11.620996597452274
412,455,11386880,11.359095652035123
413,456,11386880,11.451201398253993
414,457,11386880,11.33159315698706
415,458,11386880,11.792372521525165
416,459,11386880,11.383806372279485
417,460,11386880,11.51159663797583
418,461,11386880,11.635816661659545
419,462,11386880,11.69701464633287
420,463,11386880,11.380165702235681
421,464,11386880,11.495976820022008
422,465,11386880,11.473366234676995
423,466,11386880,11.446056110089161
424,467,11386880,11.605457180538258
425,468,11386880,11.719358191904325
426,469,11386880,11.514576655105115
427,470,11386880,11.765080270371358
428,471,11386880,10.612744001550872
429,472,11386880,11.569234270572768
430,473,11386880,11.678204489187266
431,474,11386880,11.75575198581077
432,475,11386880,11.410453997959785
433,476,11386880,11.462278870409554
434,477,11386880,11.499320354425572
435,478,11386880,11.433919143355766
436,479,11386880,11.259178398603044
437,480,11386880,11.767426815796028
438,481,11386880,11.771307355619832
439,482,11386880,11.356195559597966
440,483,11386880,11.402410082532409
441,484,11386880,11.683956272176356
442,485,11386880,11.57903407039826
443,486,11468800,11.568590663059553
444,487,11468800,11.195637637287815
445,488,11468800,11.349157184956193
446,489,11468800,11.214214893488034
447,490,11468800,11.517657904832298
448,491,11468800,11.400408946728575
449,492,11468800,11.396070279476382
450,493,11468800,11.585044334855944
451,494,11468800,11.680568710725453
452,495,11468800,11.776919546084201
453,496,11468800,11.702678020234384
454,497,11468800,11.84149935055951
455,498,11468800,11.65246617179991
456,499,11468800,11.414944292826444
457,500,11468800,11.401145601997746
458,501,11468800,11.65284503447449
459,502,11468800,11.635820568439378
460,503,11468800,11.01736352938351
461,504,11468800,11.743335702042346
462,505,11468800,11.764536929329484
463,506,11468800,11.546600997521299
464,507,11468800,12.297398726169286
465,508,11468800,11.316547174316742
466,509,11468800,11.474881687294266
467,510,11468800,11.626006864826179
468,511,11468800,10.409677747280675
469,512,11468800,11.527289466754311
470,513,11468800,11.459471989800303
471,514,11468800,11.924630942404349
472,515,11468800,11.017024861504293
473,516,11468800,11.882328807146306
474,517,11468800,11.660036254611889
475,518,11468800,11.699633774368285
476,519,11468800,11.534709329106514
477,520,11468800,11.212811513154678
478,521,11468800,11.858739057695132
479,522,11468800,11.637331839702572
480,523,11468800,11.403322124361914
481,524,11468800,11.44994194561557
482,525,11468800,11.50841195394548
483,526,11468800,11.790467535298
484,527,11468800,11.305837656026041
485,528,11468800,11.281282521920636
486,529,11468800,10.39821063158286
487,530,11468800,11.63809943244376
488,531,11468800,10.297232385356109
489,532,11468800,11.712633606418418
490,533,11468800,10.514118078474514
491,534,11468800,11.7912433403862
492,535,11468800,11.696579183009936
493,536,11468800,11.420752892580913
494,537,11468800,11.700779657489385
495,538,11468800,11.518028051893793
496,539,11468800,10.697399802818925
497,540,11468800,11.332649548326406
498,541,11468800,11.763776700771855
499,542,11468800,11.635431007457804
500,543,11468800,11.107506147538999
501,544,11468800,11.470107592265519
502,545,11468800,11.462770582673514
503,546,11468800,11.447393374389891
504,547,11468800,11.459838406366222
505,548,11468800,11.575316058369113
506,549,11468800,11.570072847635352
507,550,11550720,11.626080252194726
508,551,11550720,10.501723811879028
509,552,11550720,11.5501886913202
510,553,11550720,11.128225780035184
511,554,11550720,11.862587423360138
512,555,11550720,11.32016225534538
513,556,11550720,11.740278537262643
514,557,11550720,11.88876514822462
515,558,11550720,11.728452976404434
516,559,11550720,11.445796384542895
517,560,11550720,11.230701170156394
518,561,11550720,11.640702631340261
519,562,11550720,11.430584556313148
520,563,11550720,11.490624036290201
521,564,11550720,10.716235987423357
522,565,11550720,10.214644499469403
523,566,11550720,11.303866170567154
524,567,11550720,11.539123181202891
525,568,11550720,11.907590486892158
526,569,11550720,12.27528071976484
527,570,11550720,12.060769961679423
528,571,11550720,10.5440673463743
529,572,11550720,11.4186405843607
530,573,11550720,12.004215243467725
531,574,11550720,11.831868868042424
532,575,11550720,12.209276146041322
533,576,11550720,11.744862578421305
534,577,11550720,10.999690504192477
535,578,11550720,11.892290363829924
536,579,11550720,11.923323870967742
537,580,11550720,11.839242335721535
538,581,11550720,11.878592921828306
539,582,11550720,11.83148104520266
540,583,11550720,11.48258235629773
541,584,11550720,11.668171817515107
542,585,11550720,11.456342649255435
543,586,11550720,11.905626732907987
544,587,11550720,11.45816097563879
545,588,11550720,11.270336566888936
546,589,11550720,11.544647515406895
