idx,og Index,data (B),bandwidth (GB/s)
0,0,33570816,10.190121741220908
1,1,33570816,12.296033828837656
2,3,33570816,12.339712065680812
3,5,33570816,12.337970587316493
4,7,33570816,12.343051273707955
5,9,33570816,12.33739020375493
6,11,33570816,12.34029266772116
7,13,33570816,12.333909048724921
8,15,33570816,12.293728373433156
9,17,33570816,12.333039066899875
10,19,33570816,12.104505095703312
11,21,33570816,12.339421785147843
12,23,33570816,12.124505569119197
13,25,33570816,12.228812012721734
14,27,33570816,12.27072127936979
15,29,33570816,12.28623711385482
16,31,33570816,12.266990757776123
17,33,33570816,12.201499763026975
18,35,33570816,12.183508133573296
19,37,33570816,12.251232848417214
20,39,33570816,12.19611397730786
21,41,33570816,12.303965430985668
22,43,33570816,12.322608849818689
23,45,33570816,12.342906053171374
24,47,33570816,12.192849360045328
25,49,33570816,12.178270749353555
26,51,33570816,12.032171028297315
27,53,33570816,12.11456921068842
28,55,33570816,12.008894307128324
29,57,33570816,11.982828242807534
30,59,33570816,12.19753199458046
31,61,33570816,12.179547637127236
32,63,33570816,12.093202935007008
33,64,33587200,12.041357750276052
34,65,33587200,12.202208060813405
35,67,33587200,12.220246186266776
36,69,33587200,12.123837328505052
37,71,33587200,12.179835632851237
38,73,33587200,12.084617363506018
39,75,33587200,12.056849608146644
40,77,33587200,12.345589162322929
41,79,33587200,12.346315260531174
42,81,33587200,12.049375346192813
43,83,33587200,11.892637953176845
44,85,33587200,12.348348789970496
45,87,33587200,12.235778592269067
46,89,33587200,12.223666248259011
47,91,33587200,12.297566606998299
48,93,33587200,12.104402780460662
49,95,33587200,12.308093713480776
50,97,33587200,12.159089921775672
51,99,33587200,12.09520102070544
52,101,33587200,12.003350782945315
53,103,33587200,12.200785216312273
54,105,33587200,12.347041444154481
55,107,33587200,12.239488340177548
56,109,33587200,12.216974680855397
57,111,33587200,12.110128791265847
58,113,33587200,11.991420011024886
59,115,33587200,12.018332078561144
60,117,33587200,11.972266511538214
61,119,33587200,11.899109529469492
62,121,33587200,12.175027621745926
63,123,33587200,12.179548546745226
64,125,33587200,11.948284056337707
65,127,33587200,12.347186691130275
66,128,33603584,12.036046981423484
67,129,33603584,12.287149305118808
68,131,33603584,12.229201747570341
69,133,33603584,12.214834570256343
70,135,33603584,11.748153446683931
71,137,33603584,12.235324274333319
72,139,33603584,12.299818560423185
73,141,33603584,12.070773165510008
74,143,33603584,12.140689806665684
75,145,33603584,12.284279079289123
76,147,33603584,11.493799995690285
77,149,33603584,11.83981870097217
78,151,33603584,12.169955584399782
79,153,33603584,12.17447053947441
80,155,33603584,12.039910914161725
81,157,33603584,12.224930741875927
82,159,33603584,12.298378068182108
83,161,33603584,12.05151761198826
84,163,33603584,12.342755556861528
85,165,33603584,12.346378928742539
86,167,33603584,12.345512572526744
87,169,33603584,12.347395124474923
88,171,33603584,12.085359573029505
89,173,33603584,12.34667378974167
90,175,33603584,12.212277626695228
91,177,33603584,12.346818957253332
92,179,33603584,11.963914132468416
93,181,33603584,12.338694830160925
94,183,33603584,12.33796998154275
95,185,33603584,12.335216333314857
96,187,33603584,12.342610484884302
97,189,33603584,12.344782387637725
98,191,33603584,12.344786922681017
99,192,33619968,11.872899815514314
100,193,33619968,12.344851288830139
101,195,33619968,12.205740624497402
102,197,33619968,12.230317246437126
103,199,33619968,11.923428957291245
104,201,33619968,12.058085452526534
105,203,33619968,12.347757550337727
106,205,33619968,12.231318389670092
107,207,33619968,12.226051988771804
108,209,33619968,12.347757550337727
109,211,33619968,12.346886888526456
110,213,33619968,12.347902672577897
111,215,33619968,12.346596695207335
112,217,33619968,12.346886888526456
113,219,33619968,11.798235246226104
114,221,33619968,12.348047798229327
115,223,33619968,12.346886888526456
116,225,33619968,12.348338059766453
117,227,33619968,12.182948783733247
118,229,33619968,12.236442358367231
119,231,33619968,12.34442068004531
120,233,33619968,12.346306515528928
121,235,33619968,12.121244285487663
122,237,33619968,12.345145933203224
123,239,33619968,12.348338059766453
124,241,33619968,12.345871271585557
125,243,33619968,12.344271107181568
126,245,33619968,12.347177095487252
127,247,33619968,12.346882354150937
128,249,33619968,12.346451603663102
129,251,33619968,12.325593962579578
130,253,33619968,12.34731766938832
131,255,33619968,12.343985569052034
132,256,33636352,11.982137411976597
133,257,33636352,12.351452352703788
134,259,33636352,11.924097229509172
135,261,33636352,12.12813079610127
136,263,33636352,12.255108792281796
137,265,33636352,12.346229642019614
138,267,33636352,12.346664699208281
139,269,33636352,12.344489719822358
140,271,33636352,12.346229642019614
141,273,33636352,12.18111707598307
142,275,33636352,12.193410494140439
143,277,33636352,11.898582238414162
144,279,33636352,12.104109510169419
145,281,33636352,12.343330044112742
146,283,33636352,11.807560817814922
147,285,33636352,12.344054815896198
148,287,33636352,12.346374657675788
149,289,33636352,12.342605357433134
150,291,33636352,12.3455000836825
151,293,33636352,12.346515144841357
152,295,33636352,12.346515144841357
153,297,33636352,12.345214627803161
154,299,33636352,12.346805192974625
155,301,33636352,12.346229642019614
156,303,33636352,12.344634694607812
157,305,33636352,12.119880200511368
158,307,33636352,12.227736852666691
159,309,33636352,12.347965521798505
160,311,33636352,12.344344748442017
161,313,33636352,12.347244823157192
162,315,33636352,12.346664699208281
163,317,33636352,12.347389862662604
164,319,33636352,12.34390985473048
165,320,33652736,11.87212450711758
166,321,33652736,12.348762343630225
167,323,33652736,12.341806128739695
168,325,33652736,12.347022554873742
169,327,33652736,12.343544447635532
170,329,33652736,12.241244584189817
171,331,33652736,12.34774740727559
172,333,33652736,12.34542817911118
173,335,33652736,12.344848508192241
174,337,33652736,12.344988892247464
175,339,33652736,12.346152844318683
176,341,33652736,12.32762816302503
177,343,33652736,12.323727710606004
178,345,33652736,11.324927655917104
179,347,33652736,12.34644273422306
180,349,33652736,12.34774740727559
181,351,33652736,12.344993420818533
182,353,33652736,12.345862968026998
183,355,33652736,12.348327350477216
184,357,33652736,12.347457456102212
185,359,33652736,12.348037372066937
186,361,33652736,12.334857746485584
187,363,33652736,12.336594108463022
188,365,33652736,12.325749859263468
189,367,33652736,12.322572494958775
190,369,33652736,12.258791370512517
191,371,33652736,12.270811007317038
192,373,33652736,12.346587684280312
193,375,33652736,12.348617342507383
194,377,33652736,12.34513833684704
195,379,33652736,12.344123996089817
196,381,33652736,12.346877594605532
197,383,33652736,12.348037372066937
198,384,33669120,11.886496699795803
199,385,33669120,12.346945398818226
200,387,33669120,12.345786390678999
201,389,33669120,12.34303461822293
202,391,33669120,12.346510745265428
203,393,33669120,11.045791859953939
204,395,33669120,12.000102646863425
205,397,33669120,12.118552559971667
206,399,33669120,12.328138439056504
207,401,33669120,12.311549207809536
208,403,33669120,12.236664068079353
209,405,33669120,12.347380082975683
210,407,33669120,12.348249543117495
211,409,33669120,12.343758649930727
212,411,33669120,12.347959709465123
213,413,33669120,12.224432948666932
214,415,33669120,12.34419310972907
215,417,33669120,12.346945398818226
216,419,33669120,12.342600239966655
217,421,33669120,12.344627600111608
218,423,33669120,12.345492145905752
219,425,33669120,12.34896965749144
220,427,33669120,12.348389936184258
221,429,33669120,12.229121688570938
222,431,33669120,12.347235184855814
223,433,33669120,12.347380082975683
224,435,33669120,12.295148237643271
225,437,33669120,12.192701135938954
226,439,33669120,12.267333572346732
227,441,33669120,11.956325423675848
228,443,33669120,12.236801935260647
229,445,33669120,12.28710313115831
230,447,33669120,12.335075871675222
231,448,33685504,12.077709224313246
232,449,33685504,12.113427597416608
233,451,33685504,12.346144274549804
234,453,33685504,12.301562532524612
235,455,33685504,12.344841208907795
236,457,33685504,12.348316662041693
237,459,33685504,12.343968127863787
238,461,33685504,12.336884002796587
239,463,33685504,11.922852494028044
240,465,33685504,12.319121360089643
241,467,33685504,12.342959488510429
242,469,33685504,11.060111141208434
243,471,33685504,12.246464174947494
244,473,33685504,11.930825270657621
245,475,33685504,11.956169766906982
246,477,33685504,11.857581610516041
247,479,33685504,11.93028440649981
248,481,33685504,12.228818703260002
249,483,33685504,11.979708949172796
250,485,33685504,11.888650346913286
251,487,33685504,12.131296223202426
252,489,33685504,11.710367335360296
253,491,33685504,12.063867886417617
254,493,33685504,12.020337028293135
255,495,33685504,11.965003111529139
256,497,33685504,12.03421617465911
257,499,33685504,12.017043719480698
258,501,33685504,12.100199721252352
259,503,33685504,11.773105575409135
260,505,33685504,11.990621221284432
261,507,33685504,11.983663897498072
262,509,33685504,12.175776765705198
263,511,33685504,11.80360028074523
264,512,33701888,11.93446398667381
265,513,33701888,11.73826596166713
266,515,33701888,12.107755139579867
267,517,33701888,12.23505083977846
268,519,33701888,12.014654918869972
269,521,33701888,11.898464124962885
270,523,33701888,12.116948972166375
271,525,33701888,12.192981288259215
272,527,33701888,12.271403478620552
273,529,33701888,11.933923055649688
274,531,33701888,12.28213657845404
275,533,33701888,12.341293448898007
276,535,33701888,11.463312990777482
277,537,33701888,12.069320574710996
278,539,33701888,11.687982340690802
279,541,33701888,12.238320865712833
280,543,33701888,11.829636106379327
281,545,33701888,12.33377346945348
282,547,33701888,11.968238004733049
283,549,33701888,11.779885765976493
284,551,33701888,12.000968569906533
285,553,33701888,12.081222852378236
286,555,33701888,11.867225510077246
287,557,33701888,12.279849749698213
288,559,33701888,12.141114354964682
289,561,33701888,12.174240100856304
290,563,33701888,11.893895456045342
291,565,33701888,12.083722237679597
292,567,33701888,12.20301198362788
293,569,33701888,11.872442856060859
294,571,33701888,12.075132496553227
295,573,33701888,12.332044944675399
296,575,33701888,12.348523976045938
297,576,33718272,11.929316240374597
298,577,33718272,12.071176334126664
299,579,33718272,12.263651467494567
300,581,33718272,12.241425480315417
301,583,33718272,12.202864562976089
302,585,33718272,12.34628038257855
303,587,33718272,12.347437793664913
304,589,33718272,12.1824072976793
305,591,33718272,12.245128662151135
306,593,33718272,11.928911084373068
307,595,33718272,11.356888295641824
308,596,33718272,12.316695566602512
309,598,33718272,12.312517345033989
310,601,33718272,12.346859060997415
311,603,33718272,12.347293105411811
312,605,33718272,12.342809450859594
313,607,33718272,12.176213133650538
314,609,33718272,12.28739548163629
315,611,33718272,12.33601785960585
316,613,33718272,12.34034753839172
317,615,33718272,12.34396621123688
318,617,33718272,12.348156763708914
319,619,33718272,12.267220830022614
320,621,33718272,12.221126742696216
321,623,33718272,12.34599106370997
322,625,33718272,12.335729021509243
323,627,33718272,12.319139048264857
324,629,33718272,12.349898012890408
325,631,33718272,12.322164368263026
326,633,33718272,12.345986543210238
327,635,33718272,12.345123188456206
328,637,33718272,12.182689000332404
329,639,33718272,12.212198916926715
330,640,33734656,12.006753890178102
331,641,33734656,12.3108758674448
332,643,33734656,12.346637533648453
333,645,33734656,12.346492934410852
334,647,33734656,12.342879053918827
335,649,33734656,12.227916035207768
336,651,33734656,12.227202477433721
337,653,33734656,12.34504261068385
338,655,33734656,12.337678781133894
339,657,33734656,12.254919454914805
340,659,33734656,12.311594731817266
341,661,33734656,12.332622651166192
342,663,33734656,12.318360660885784
343,665,33734656,12.325557332055034
344,667,33734656,12.347939079219051
345,669,33734656,12.256063698030182
346,671,33734656,12.203847389395513
347,673,33734656,12.279619264219988
348,675,33734656,12.306999939805078
349,677,33734656,12.342585519056108
350,679,33734656,12.276330331451563
351,681,33734656,12.339989472402001
352,683,33734656,12.304840719352665
353,685,33734656,12.254781447811753
354,687,33734656,12.278189076940826
355,689,33734656,12.184664106542764
356,691,33734656,12.313900156923067
357,693,33734656,12.321955695296314
358,695,33734656,12.334647311779992
359,697,33734656,12.33320427847917
360,699,33734656,12.32282439750509
361,701,33734656,12.197493296462673
362,703,33734656,12.310013341001246
363,704,33751040,12.165412796682748
364,705,33751040,12.199747265172041
365,707,33751040,12.313835143441725
366,709,33751040,12.255884822198917
367,711,33751040,12.302636255243952
368,713,33751040,12.114550221249738
369,715,33751040,12.244786602620847
370,717,33751040,12.274998036060833
371,719,33751040,12.30622486189195
372,721,33751040,12.315421241932736
373,723,33751040,12.339189667426128
374,725,33751040,12.302492754510684
375,727,33751040,12.323479356891205
376,729,33751040,12.29991031363987
377,731,33751040,12.215713810027072
378,733,33751040,12.346560756559297
379,735,33751040,12.30364085411977
380,737,33751040,12.248345979890106
381,739,33751040,12.340926700079383
382,741,33751040,12.309815562701715
383,743,33751040,12.338034924153582
384,745,33751040,12.339045312696504
385,747,33751040,12.345978151767085
386,749,33751040,12.170325945542084
387,751,33751040,12.142304138977071
388,753,33751040,12.312833371091525
389,755,33751040,12.25275251872526
390,757,33751040,12.323906839247165
391,759,33751040,12.348146261938004
392,761,33751040,12.341359906479143
393,763,33751040,12.317866341217377
394,765,33751040,12.257594026468324
395,767,33751040,12.325207467932625
396,768,33767424,12.067206998584846
397,769,33767424,12.170616441713547
398,771,33767424,12.312486075838594
399,773,33767424,12.348362281853031
400,775,33767424,12.145122445984791
401,777,33767424,12.346050699084012
402,779,33767424,12.12363387781949
403,781,33767424,12.321399601758916
404,783,33767424,12.325280834897988
405,785,33767424,12.298423226963463
406,787,33767424,12.19058181345579
407,789,33767424,12.293976984443674
408,791,33767424,12.309321823828757
409,793,33767424,12.304585219670182
410,795,33767424,12.169633924478363
411,797,33767424,12.26525482583971
412,799,33767424,12.156455473090315
413,801,33767424,12.272958033967102
414,803,33767424,12.343306818360434
415,805,33767424,12.34937387152965
416,807,33767424,12.33305965025055
417,809,33767424,12.274385615954357
418,811,33767424,12.331767002757603
419,813,33767424,12.197768472522043
420,815,33767424,12.173003215619547
421,817,33767424,12.17454809764033
422,819,33767424,12.32931757114727
423,821,33767424,12.346339599600002
424,823,33767424,12.243343873491991
425,825,33767424,12.24476013379246
426,827,33767424,12.217257278813507
427,829,33767424,12.173705386112914
428,831,33767424,12.291685716532177
429,832,33783808,12.1430489779135
430,833,33783808,12.194101867385863
431,835,33783808,12.323205102063522
432,837,33783808,12.325502523196185
433,839,33783808,12.172309927277025
434,841,33783808,11.880542617257902
435,843,33783808,12.28963752565964
436,845,33783808,12.347269287783941
437,847,33783808,12.211309188173209
438,849,33783808,12.158711969618883
439,851,33783808,12.085223776804137
440,853,33783808,12.34366471984172
441,855,33783808,12.323636646174577
442,857,33783808,12.137185754892409
443,859,33783808,12.30639394089517
444,861,33783808,11.943037636831882
445,863,33783808,12.156331950637469
446,865,33783808,11.894463149452328
447,867,33783808,12.337750392860833
448,869,33783808,12.340197479347658
449,871,33783808,12.347418207574789
450,873,33783808,12.183688248141276
451,875,33783808,12.301231877936598
452,877,33783808,12.14738459757245
453,879,33783808,12.173573135541673
454,881,33783808,12.140256260618832
455,883,33783808,11.520766927872373
456,885,33783808,11.854129933707865
457,887,33783808,12.174134645598922
458,889,33783808,12.01398130397103
459,891,33783808,12.34640742864431
460,893,33783808,12.349729181006957
461,895,33783808,12.252691806636744
462,896,33800192,11.830124576104193
463,897,33800192,12.257638133368149
464,898,33800192,11.913519617895414
465,899,33800192,12.230958261187373
466,900,33800192,11.968732748568453
467,901,33800192,12.129127827362582
468,902,33800192,11.997826205020388
469,903,33800192,11.692485233997125
470,904,33800192,11.973485610644298
471,905,33800192,12.118829829648943
472,906,33800192,11.860411469724717
473,907,33800192,12.154669811999252
474,908,33800192,11.749849216918713
475,909,33800192,12.126482077304807
476,910,33800192,11.886438038073662
477,911,33800192,12.076845460132345
478,912,33800192,11.59277753483387
479,913,33800192,12.095649563109767
480,914,33800192,11.71219218420055
481,915,33800192,12.27188385780816
482,916,33800192,12.12968497449192
483,917,33800192,12.295883848939013
484,918,33800192,12.150619372506755
485,919,33800192,12.34632636780447
486,920,33800192,11.809358898703179
487,921,33800192,12.152572159981592
488,922,33800192,12.063053005753115
489,923,33800192,12.183832074584815
490,924,33800192,11.82165077573022
491,925,33800192,11.722851175434593
492,926,33800192,12.042835195092822
493,927,33800192,12.218648950449323
494,928,33800192,11.774338080431509
495,929,33800192,12.308062499840688
496,930,33800192,12.074774581672168
497,931,33800192,11.937081343683925
498,932,33800192,11.726885849476213
499,933,33800192,12.210875565382004
500,934,33800192,12.021590369124748
501,935,33800192,12.24158522557709
502,936,33800192,11.726365090323721
503,937,33800192,12.117022527496164
504,938,33800192,12.16488873149004
505,939,33800192,12.12857073141325
506,940,33800192,11.725197618757711
507,941,33800192,12.19030032690016
508,942,33800192,12.155369190270006
509,943,33800192,12.140140968504774
510,944,33800192,11.71219218420055
511,945,33800192,11.83237747170135
512,946,33800192,12.11535472696877
513,947,33800192,12.057131931384607
514,948,33800192,11.901438340512302
515,949,33800192,12.140838675750931
516,950,33800192,12.158587367227542
517,951,33800192,12.146279181000452
518,952,33800192,11.803552290312656
519,953,33800192,12.11257607944658
520,954,33800192,12.182426840977703
521,955,33800192,12.331628440659848
522,956,33800192,11.826941339403996
523,957,33800192,11.910568349359652
524,958,33800192,12.166850488255097
525,959,33800192,12.192837650403028
