idx,og Index,data (B),bandwidth (GB/s)
0,0,16785408,12.039213098574981
1,1,16785408,12.151900493665744
2,2,16785408,12.126055902034542
3,3,16785408,12.180966224311558
4,4,16785408,11.958519160238124
5,6,16785408,11.98283251998161
6,8,16785408,11.766187665605855
7,10,16785408,11.948712545949993
8,12,16785408,11.893713809552153
9,14,16785408,12.09835867067605
10,16,16785408,11.846705870064168
11,18,16785408,11.834411106943532
12,20,16785408,11.992969439927293
13,22,16785408,12.069407653479443
14,24,16785408,11.99214688861899
15,26,16785408,12.016872610644178
16,28,16785408,11.992421059851337
17,30,16785408,12.046125095806888
18,32,16785408,11.750636346071456
19,33,16785408,12.33014454236332
20,34,16785408,11.692740228248445
21,35,16785408,12.224675109025283
22,36,16785408,11.70631770111223
23,38,16785408,12.111487919833063
24,40,16785408,12.106456331266715
25,42,16785408,11.969980574659202
26,44,16785408,11.773838374415092
27,46,16785408,11.824806904927623
28,48,16785408,11.866806552778257
29,50,16785408,12.0883301657901
30,52,16785408,12.012744578830603
31,54,16785408,11.949529149450555
32,56,16785408,11.928062420943421
33,58,16785408,11.930241235910255
34,60,16785408,11.900459700358175
35,62,16785408,11.969442830096517
36,64,16785408,11.482847293814874
37,65,16785408,12.234092968100295
38,66,16785408,11.63258958643459
39,67,16785408,12.316826423188092
40,68,16785408,11.63645237212172
41,70,16785408,12.053875961198738
42,72,16785408,12.031757045413492
43,74,16785408,11.827473174801366
44,76,16785408,11.823732404833066
45,78,16785408,11.883743914906391
46,80,16785408,11.923724117942903
47,82,16785408,11.70945355816426
48,84,16785408,11.963428506264878
49,86,16785408,11.782044838768549
50,88,16785408,11.997358286660205
51,90,16785408,11.895601887942398
52,92,16785408,11.743533342848268
53,94,16785408,11.92941878811138
54,96,16785408,11.63541989431677
55,97,16785408,11.827473174801366
56,98,16785408,11.724887800755097
57,99,16785408,12.041424074515126
58,100,16785408,11.835746257922036
59,102,16785408,12.198804059337727
60,104,16785408,12.196260195091824
61,106,16785408,11.74064198801973
62,108,16785408,11.937291804752327
63,110,16785408,12.038392825765623
64,112,16785408,11.951434991754885
65,114,16785408,11.957973926052576
66,116,16785408,11.832809323336257
67,118,16785408,12.09612673924887
68,120,16785408,12.032585039670364
69,122,16785408,11.876748036510294
70,124,16785408,12.01714791364187
71,126,16785408,11.96970742852579
72,128,16785408,11.74931210272226
73,129,16785408,12.156406455159267
74,130,16785408,11.79131461005662
75,131,16785408,12.32087671715522
76,132,16785408,11.591964481178104
77,134,16785408,11.852327193951188
78,136,16785408,11.93566205227245
79,138,16785408,12.136998326096624
80,140,16785408,11.968888064916358
81,142,16785408,11.863585861013183
82,144,16785408,11.860635095603511
83,146,16785408,12.044188936692947
84,148,16785408,11.961791609775009
85,150,16785408,11.99983700349513
86,152,16785408,11.858758099931894
87,154,16785408,11.88724494565356
88,156,16785408,11.523208213853463
89,158,16785408,11.861171489220977
90,160,16785408,11.771732818667124
91,161,16785408,11.607868954943752
92,162,16785408,11.678950429852856
93,163,16785408,10.316993522302543
94,164,16785408,11.496185496049888
95,166,16785408,12.166830481790427
96,168,16785408,12.006420435525266
97,170,16785408,11.708408085824695
98,172,16785408,11.88078311462182
99,174,16785408,11.569217875092702
100,176,16785408,12.032033030837383
101,178,16785408,11.789989464072487
102,180,16785408,11.350411167694615
103,182,16785408,11.726198352014922
104,184,16785408,11.927519960434426
105,186,16785408,11.816815303125448
106,188,16785408,11.794230980025127
107,190,16785408,11.762221797106081
108,192,16785408,11.58965938898398
109,193,16785408,10.57022273440009
110,194,16785408,11.19991139040334
111,195,16785408,9.841581650601562
112,196,16785408,11.588891228627352
113,198,16785408,12.194550109410462
114,200,16785408,11.839486283881197
115,202,16785408,11.736693318603098
116,204,16785408,11.919118127412524
117,206,16785408,12.068296919621416
118,208,16785408,11.968888064916358
119,210,16785408,11.641108864088416
120,212,16785408,11.769091617889988
121,214,16785408,11.91397446489562
122,216,16785408,11.844565815656887
123,218,16785408,11.890478497777098
124,220,16785408,11.986118291578716
125,222,16785408,11.835479203625933
126,224,16785408,11.720172240799172
127,225,16785408,10.34955680187046
128,226,16785408,11.51057287452169
129,227,16785408,11.095428279070505
130,228,16785408,11.767243482430533
131,230,16785408,11.88051402411576
132,232,16785408,11.966157662859832
133,234,16785408,11.806442355575937
134,236,16785408,11.715206995033459
135,238,16785408,11.81096165699859
136,240,16785408,11.801395462637204
137,242,16785408,11.923182051945027
138,244,16785408,11.522203642534123
139,246,16785408,11.931318220460664
140,248,16785408,11.716515382918665
141,250,16785408,11.44951184724533
142,252,16785408,11.846170783966667
143,254,16785408,11.793957509058677
144,256,16785408,11.693269688939418
145,257,16785408,11.88670619127607
146,258,16785408,11.716515382918665
147,259,16785408,9.207564226479182
148,260,16785408,11.155607808004593
149,262,16785408,11.944903204870926
150,264,16785408,11.933761236729923
151,266,16785408,11.96042787150174
152,268,16785408,11.708930798657326
153,270,16785408,11.498705613574788
154,272,16785408,11.808834496013867
155,274,16785408,11.900459700358175
156,276,16785408,11.904510909188911
157,278,16785408,11.816016737014312
158,280,16785408,11.749583507163678
159,282,16785408,11.799271745701471
160,284,16785408,11.986400746659278
161,286,16785408,11.42458257216676
162,288,16785408,11.670375695616745
163,289,16785408,9.844167421260304
164,290,16785408,11.353359220753044
165,291,16785408,11.028947902711078
166,292,16785408,11.85714971927812
167,294,16785408,11.885090221113241
168,296,16785408,11.718863036106626
169,298,16785408,11.756693833296445
170,300,16785408,11.243122169611956
171,302,16785408,11.762230039381667
172,304,16785408,11.908286078533894
173,306,16785408,11.45301172429651
174,308,16785408,11.608390757220748
175,310,16785408,11.825340062728786
176,312,16785408,11.624597979439816
177,314,16785408,11.705787058184402
178,316,16785408,11.861707931357113
179,318,16785408,11.716777095566371
180,320,16785408,11.396031140926475
181,321,16785408,11.059409691589321
182,322,16785408,11.535625557954027
183,323,16785408,11.266546519939993
184,324,16785408,11.513604723584173
185,326,16785408,12.227818722349665
186,328,16785408,11.799537168517336
187,330,16785408,11.786810328604211
188,332,16785408,11.602998387993177
189,334,16785408,11.793700623642193
190,336,16785408,11.795026604042466
191,338,16785408,11.78019263322488
192,340,16785408,11.685975499383169
193,342,16785408,11.722013804893447
194,344,16785408,11.821600641738497
195,346,16785408,11.587107249066014
196,348,16785408,11.625105184386932
197,350,16785408,11.509302183663017
198,352,16785408,11.60967539348131
199,353,16785408,10.816078933226109
200,354,16785408,11.44576435186227
201,355,16785408,10.299571889387066
202,356,16785408,11.568699588471693
203,358,16785408,11.685967363630478
204,360,16785408,11.855541774848357
205,362,16785408,12.087207242498696
206,364,16785408,12.075251049050154
207,366,16785408,11.699790057127881
208,368,16785408,11.669337189416165
209,370,16785408,11.58378075475969
210,372,16785408,11.800598979204455
211,374,16785408,11.789989464072487
212,376,16785408,11.762230039381667
213,378,16785408,11.659480590927151
214,380,16785408,11.846973431240524
215,382,16785408,11.843220318055232
216,384,16785408,11.744848065873107
217,385,16785408,11.515618943470216
218,386,16785408,11.661813543354352
219,387,16785408,11.310761774934452
220,388,16785408,11.551383654896952
221,390,16785408,11.73511787616658
222,392,16785408,11.795557079692037
223,394,16785408,11.702139170154798
224,396,16785408,11.77172456306819
225,398,16785408,11.788656336538468
226,400,16785408,11.896411247912775
227,402,16785408,11.834135769524439
228,404,16785408,11.814952150078975
229,406,16785408,11.898300182882743
230,408,16785408,11.704219901501464
231,410,16785408,11.802714874856292
232,412,16785408,11.832267151083489
233,414,16785408,11.759065854772587
234,416,16785408,11.495177758313343
235,417,16785408,10.788937895536566
236,418,16785408,11.54781546234513
237,419,16785408,10.455396996443321
238,420,16785408,11.584548237755945
239,422,16785408,11.826139889583104
240,424,16785408,11.758802249564967
241,426,16785408,11.677390450165156
242,428,16785408,11.521950549827707
243,430,16785408,11.708930798657326
244,432,16785408,11.81894534055479
245,434,16785408,11.523722432301064
246,436,16785408,11.719133035632002
247,438,16785408,12.169379728343417
248,440,16785408,12.207613845868531
249,442,16785408,11.87594134977034
250,444,16785408,11.852854466585084
251,446,16785408,11.732238863555667
252,448,16785408,12.0199016375599
253,449,16785408,11.636460439075927
254,450,16785408,11.786810328604211
255,451,16785408,11.016201330706398
256,452,16785408,11.925079498597585
257,454,16785408,11.75616684736475
258,456,16785408,11.847241004503042
259,458,16785408,11.805113807392488
260,460,16785408,11.946535482162837
261,462,16785408,11.437286897555472
262,463,16785408,10.71313058979185
263,464,16793600,11.825512845429529
264,466,16793600,11.820452107517012
265,468,16793600,11.863472857615156
266,470,16793600,11.774827184133825
267,471,16793600,11.85811163865297
268,472,16793600,11.55702122622682
269,473,16793600,11.843652168884319
270,474,16793600,11.731404924038147
271,476,16793600,11.912754058264218
272,478,16793600,11.921413623418037
273,480,16793600,11.8492762131086
274,482,16793600,12.099240051066724
275,484,16793600,11.956450542659502
276,486,16793600,11.740845117687403
277,488,16793600,11.94855609281305
278,490,16793600,12.132245638673846
279,492,16793600,11.850346472472726
280,494,16793600,11.992242061395116
281,496,16793600,11.967356572155031
282,498,16793600,11.832711879215248
283,500,16793600,11.775099635674199
284,502,16793600,11.835380412873908
285,503,16793600,11.260194191682652
286,504,16793600,11.99745099888267
287,505,16793600,11.483926291596374
288,506,16793600,12.254059244687154
289,508,16793600,11.739794545206696
290,510,16793600,12.124957763074676
291,512,16793600,12.030178601617816
292,514,16793600,11.943661330746451
293,516,16793600,11.845264461667377
294,518,16793600,11.911942868978276
295,520,16793600,11.774307084383842
296,522,16793600,12.320523176179462
297,524,16793600,12.186619217495045
298,526,16793600,11.69715121543498
299,528,16793600,11.860255544663817
300,530,16793600,12.33616218245232
301,532,16793600,12.246052788934684
302,534,16793600,11.656879485791235
303,535,16793600,11.983205701612926
304,536,16793600,11.866960250318693
305,537,16793600,12.095614821046324
306,538,16793600,11.750316959650267
307,540,16793600,11.805030297065894
308,542,16793600,11.913294912503227
309,544,16793600,11.818588716828483
310,546,16793600,11.940680551101769
311,548,16793600,11.91167249709897
312,550,16793600,12.329496272943988
313,552,16793600,11.828444727433574
314,554,16793600,11.969548697209676
315,556,16793600,11.706283372136793
316,558,16793600,11.903837048084311
317,560,16793600,12.042057136956744
318,562,16793600,12.151356514125908
319,564,16793600,11.727726461059934
320,566,16793600,11.561604150545392
321,567,16793600,10.890529864069409
322,568,16793600,11.295571121283988
323,569,16793600,11.653514457252776
324,570,16793600,11.68386983661395
325,572,16793600,12.047300806615915
326,574,16793600,11.850346472472726
327,576,16793600,11.818854879528416
328,578,16793600,11.835380412873908
329,580,16793600,11.866155285419135
330,582,16793600,11.945836285363903
331,584,16793600,11.694805249068933
332,586,16793600,11.756362931222169
333,588,16793600,11.766379191355702
334,590,16793600,11.92358894801677
335,592,16793600,11.997176731466585
336,594,16793600,11.928729930076685
337,596,16793600,12.028248506639546
338,598,16793600,11.616626961398731
339,599,16793600,11.770337678102964
340,600,16793600,11.312371424298803
341,601,16793600,11.763214318485721
342,602,16793600,11.692191582730457
343,604,16793600,11.97691568176048
344,606,16793600,12.025483691024926
345,608,16793600,12.078355106632106
346,610,16793600,11.927374381031656
347,612,16793600,11.988132936241659
348,614,16793600,11.987311449104464
349,616,16793600,11.869644255588634
350,618,16793600,11.9903241191607
351,620,16793600,12.110687716524986
352,622,16793600,11.975284432258594
353,624,16793600,11.984300292585456
354,626,16793600,11.623308354460518
355,628,16793600,11.868570507800905
356,630,16793600,11.797334472303634
357,631,16793600,12.012555042760965
358,632,16793600,11.883898186944101
359,633,16793600,11.670359055897306
360,634,16793600,11.775363843148474
361,636,16793600,11.919518267945001
362,638,16793600,11.889274336283187
363,640,16793600,11.9314419527278
364,642,16793600,12.235497777463678
365,644,16793600,12.335582252028251
366,646,16793600,12.133376394334732
367,648,16793600,12.228931279255033
368,649,16793600,11.33412297485633
369,650,16793600,12.32515282041647
370,652,16793600,12.322249843711937
371,654,16793600,11.971724556806095
372,656,16793600,12.12804002622966
373,658,16793600,12.128880915443927
374,660,16793600,12.23862758530222
375,662,16793600,11.655059217078392
376,663,16793600,11.907888579102767
377,664,16793600,11.80556141372048
378,665,16793600,11.9504606950418
379,666,16793600,12.113762727904877
380,668,16793600,11.783824747042395
381,670,16793600,12.329496272943988
382,672,16793600,11.584317685785315
383,674,16793600,12.211289276438064
384,676,16793600,11.892776916953949
385,678,16793600,11.970086188954243
386,680,16793600,11.853558410904911
387,682,16793600,11.863196301228097
388,684,16793600,12.115720366495923
389,686,16793600,11.46485944391991
390,688,16793600,11.715952883920425
391,690,16793600,11.947196034295828
392,692,16793600,11.774042924328553
393,694,16793600,11.962446397788954
394,695,16793600,11.763749919443642
395,696,16793600,11.611735364501982
396,697,16793600,12.043153869763893
397,698,16793600,11.482175333998825
398,700,16793600,12.320224900446926
399,702,16793600,11.788324549556506
400,704,16793600,11.940128718136858
401,706,16793600,11.959447718720535
402,708,16793600,11.96463672420193
403,710,16793600,11.69610030163759
404,712,16793600,12.299444483098297
405,714,16793600,12.00432034299692
406,716,16793600,12.332384552795377
407,718,16793600,11.739540137964203
408,720,16793600,12.328337719636322
409,722,16793600,11.806623790414429
410,724,16793600,11.858379584516092
411,726,16793600,10.851116346329052
412,727,16793600,12.32312692301201
413,728,16793600,12.170236634632735
414,729,16793600,12.125798224915304
415,730,16793600,12.209584686835669
416,732,16793600,12.3274689475303
417,734,16793600,11.878510093508183
418,736,16793600,12.071409471617065
419,738,16793600,12.30578035190358
420,740,16793600,11.707842154394658
421,742,16793600,12.320233938893296
422,744,16793600,12.328048115328796
423,746,16793600,12.328328669295756
424,748,16793600,12.33239360909185
425,750,16793600,11.975549159823265
426,752,16793600,11.937955841164678
427,754,16793600,12.129730682362357
428,756,16793600,11.772458212876687
429,758,16793600,11.707319793677451
430,759,16793600,12.33123451124369
431,760,16793600,11.769290069381176
432,761,16793600,12.329197562587181
433,762,16793600,11.716729423896307
434,764,16793600,11.794152927328758
435,766,16793600,12.226652027922338
436,768,16793600,12.246052788934684
437,770,16793600,11.666459415468257
438,772,16793600,12.025216751209424
439,774,16793600,11.749527740852166
440,776,16793600,12.178709449566368
441,778,16793600,12.204473772183544
442,780,16793600,12.264941909210684
443,782,16793600,11.676582797315309
444,784,16793600,12.311274313953037
445,786,16793600,11.807686358331107
446,788,16793600,11.688806138961874
447,790,16793600,11.4621050124186
448,791,16793600,12.232075547284428
449,792,16793600,11.6199626774017
450,793,16793600,12.132245638673846
451,794,16793600,11.537449513009653
452,796,16793600,11.822316085885252
453,798,16793600,12.144317908992823
454,800,16793600,11.822848759113398
455,802,16793600,12.254059244687154
456,804,16793600,11.901947276958971
457,806,16793600,11.713329757546294
458,808,16793600,12.122437076455318
459,810,16793600,11.818048110749162
460,812,16793600,11.886312225201225
461,814,16793600,11.831644802660316
462,816,16793600,11.746109017455215
463,818,16793600,11.376382706456729
464,820,16793600,12.225227927237997
465,822,16793600,11.555486440868066
466,823,16793600,12.199083557794843
467,824,16793600,11.590961954042266
468,825,16793600,12.32283756346295
469,826,16793600,11.18245603053974
470,828,16793600,11.922226103155198
471,830,16793600,12.331515210259031
472,832,16793600,12.14544213239527
473,834,16793600,11.73953193146254
474,836,16793600,12.29857977826291
475,838,16793600,11.875822077646559
476,840,16793600,11.914106285951037
477,842,16793600,11.984300292585456
478,844,16793600,11.906537762362703
479,846,16793600,11.659979295649379
480,848,16793600,11.661793003451956
481,850,16793600,11.677362246746302
482,852,16793600,11.860791642300402
483,854,16793600,11.674764486569947
484,855,16793600,12.221251103424636
485,856,16793600,11.748212611755488
486,857,16793600,12.23777141041598
487,858,16793600,11.658692229297241
488,860,16793600,11.51113852902872
489,862,16793600,11.566190711013281
490,864,16793600,11.872329475241001
491,866,16793600,11.8071550504667
492,868,16793600,11.771137945826522
493,870,16793600,12.068633453778203
494,872,16793600,12.109011095504403
495,874,16793600,11.610707769486632
496,876,16793600,11.929001076860567
497,878,16793600,11.920059736579853
498,880,16793600,11.967629477812967
499,882,16793600,11.272771453446184
500,884,16793600,11.650410000971238
501,886,16793600,11.478408267603516
502,887,16793600,12.260643812293935
503,888,16793600,11.698707566445073
504,889,16793600,12.241776842123679
505,890,16793600,12.032117936765752
506,892,16793600,11.821250883412125
507,894,16793600,11.595323646627651
508,896,16793600,11.579964267712203
509,898,16793600,11.831911553755669
510,900,16793600,11.830569584271744
511,902,16793600,11.778006570143718
512,904,16793600,11.759524117962165
513,906,16793600,11.710201520117147
514,908,16793600,11.85998751401848
515,910,16793600,11.853558410904911
516,912,16793600,11.88039242874
517,914,16793600,11.861319410748049
518,916,16793600,11.869635866181051
519,918,16793600,11.548874827818363
520,919,16793600,12.218121286330932
521,920,16793600,11.61585559862438
522,921,16793600,12.232351750038605
523,922,16793600,11.591473982753872
524,924,16793600,11.63232553000933
525,926,16793600,11.770081945382827
526,928,16793600,11.499527860348007
527,930,16793600,11.82550451828969
528,932,16793600,11.90896100810898
529,934,16793600,11.70184597289154
530,936,16793600,11.886043015562494
531,938,16793600,11.863472857615156
532,940,16793600,11.816991992344175
533,942,16793600,11.792827789996434
534,944,16793600,11.739802752075521
535,946,16793600,11.845531827248898
536,948,16793600,11.638774940207263
537,950,16793600,11.648599831863294
538,951,16793600,12.32977689282809
539,952,16793600,11.596092284831226
540,953,16793600,12.320523176179462
541,954,16793600,11.87394119027889
542,956,16793600,11.58814660451765
543,958,16793600,11.58559637508589
544,960,16793600,11.843393240487119
545,962,16793600,11.742692282950106
546,964,16793600,11.488954428251159
547,966,16793600,11.80981206803919
548,968,16793600,11.790178408449478
549,970,16793600,11.789110713154992
550,972,16793600,11.795743485284822
551,974,16793600,11.617655604472843
552,976,16793600,11.792827789996434
553,978,16793600,11.840979904263037
554,980,16793600,11.417964991960185
555,982,16809984,12.006685465968406
556,984,16809984,11.58615670067849
557,986,16809984,11.767577178858943
558,988,16809984,11.788695324701372
559,990,16809984,11.670576996375244
560,992,16809984,11.754140349184306
561,994,16809984,10.972416845188906
