idx,og Index,data (B),bandwidth (GB/s)
0,0,33579008,12.269549279882606
1,1,33579008,12.223247206279396
2,2,33579008,12.198518406575044
3,3,33579008,12.337644042942737
4,5,33579008,12.34591798729855
5,7,33579008,12.346503571326144
6,8,33579008,12.081948107975077
7,9,33579008,12.349114408473552
8,10,33579008,12.01829067513436
9,11,33579008,12.347229954279335
10,13,33579008,12.346353765473383
11,15,33579008,12.312599666985308
12,16,33579008,12.127048125001128
13,17,33579008,12.345046523229998
14,18,33579008,12.017740111376748
15,19,33579008,12.345482239885174
16,21,33579008,12.346644301347913
17,23,33579008,12.347515991020392
18,24,33579008,12.196537867954593
19,25,33579008,12.34868297662801
20,26,33579008,12.01154974316416
21,27,33579008,12.343158773072886
22,29,33579008,12.347515991020392
23,31,33579008,12.348678435400492
24,32,33579008,12.196254353534021
25,33,33579008,12.348828297672188
26,34,33579008,12.02903676021746
27,35,33579008,12.346644301347913
28,37,33579008,12.346934850896613
29,39,33579008,12.343449158595217
30,40,33579008,12.219261808147555
31,41,33579008,12.343884762498185
32,42,33579008,12.072769527688374
33,43,33579008,12.348678435400492
34,45,33579008,12.339820321322538
35,47,33579008,12.347515991020392
36,48,33579008,12.194832550342396
37,49,33579008,12.347084670851121
38,50,33579008,12.058341401193372
39,51,33579008,12.34519175869768
40,53,33579008,12.345336997582699
41,55,33579008,12.199515565377784
42,56,33579008,12.165853230839573
43,57,33579008,12.299034325135565
44,58,33579008,12.10620170941157
45,59,33579008,12.322720972400766
46,61,33579008,12.346213042074696
47,63,33579008,12.338514462172958
48,64,33579008,12.131674831161334
49,65,33579008,12.349841098675498
50,66,33579008,12.129006157873901
51,67,33579008,12.347520531392972
52,69,33579008,12.34447015365974
53,71,33579008,12.348247034016417
54,72,33579008,12.097408995651216
55,73,33579008,12.344610837329764
56,74,33579008,12.181246927844477
57,75,33579008,12.347375241126578
58,77,33579008,12.345627485605227
59,79,33579008,12.344610837329764
60,80,33579008,12.048649564111617
61,81,33579008,12.346499031701438
62,82,33579008,12.201359630619995
63,83,33579008,12.349264281327345
64,85,33579008,12.345627485605227
65,87,33579008,12.321133900704432
66,88,33579008,12.011004093090536
67,89,33579008,12.344615375566057
68,90,33579008,12.182798164471908
69,91,33579008,12.34519175869768
70,93,33579008,12.3478065815974
71,95,33579008,12.346208502663632
72,96,33579008,11.979458082966085
73,97,33579008,12.349695753793194
74,98,33579008,12.168247111858411
75,99,33579008,12.347370700860848
76,101,33579008,12.344610837329764
77,103,33579008,12.34519175869768
78,104,33579008,12.057787161919535
79,105,33579008,12.34475606254616
80,106,33579008,12.152323268586583
81,107,33579008,12.346063243272061
82,109,33579008,12.345627485605227
83,111,33579008,12.32778786767392
84,112,33579008,12.086814544344586
85,113,33579008,12.346648841079448
86,114,33579008,12.142765240289568
87,115,33579008,12.34824249310953
88,117,33579008,12.348678435400492
89,119,33579008,12.348097185852442
90,120,33579008,12.087654281434679
91,121,33579008,12.342727757254966
92,122,33579008,12.18379275474694
93,123,33579008,12.340836180666653
94,125,33579008,12.347661284599202
95,127,33579008,12.345486778762194
96,128,33579008,12.085004937795295
97,129,33579008,12.343739557781104
98,130,33579008,12.191857138292711
99,131,33579008,12.346353765473383
100,133,33579008,12.345627485605227
101,135,33579008,12.328512050026307
102,136,33579008,12.127328430974213
103,137,33579008,12.348537659004071
104,138,33579008,12.240356971140264
105,139,33579008,12.343449158595217
106,141,33579008,12.348097185852442
107,143,33579008,12.349841098675498
108,144,33579008,11.966074925949261
109,145,33579008,12.344465615530224
110,146,33579008,12.170650757607335
111,147,33579008,12.343739557781104
112,149,33579008,12.343884762498185
113,151,33579008,12.34519175869768
114,152,33579008,12.04422419705191
115,153,33579008,12.346208502663632
116,154,33579008,12.002756640673033
117,155,33579008,12.344465615530224
118,157,33579008,12.343594356480155
119,159,33579008,12.331119811127786
120,160,33579008,12.04159817312299
121,161,33579008,12.342578043015045
122,162,33579008,12.004816368789701
123,163,33579008,12.34417518218122
124,165,33579008,12.346499031701438
125,167,33579008,12.346208502663632
126,168,33579008,12.10452592150138
127,169,33579008,12.283202389113205
128,170,33579008,12.09713007104662
129,171,33579008,12.34591798729855
130,173,33579008,12.345627485605227
131,175,33579008,12.317802832297954
132,176,33587200,11.954271721644053
133,177,33587200,12.274412823755947
134,178,33587200,11.894124612939507
135,179,33587200,12.343121067116677
136,181,33587200,12.346605723729846
137,182,33587200,12.32558250480092
138,184,33587200,11.977462377861778
139,185,33587200,12.322258885129656
140,186,33587200,12.0333508170033
141,187,33587200,12.30347687365265
142,189,33587200,12.291086261782075
143,191,33587200,12.337897768744497
144,192,33587200,11.995942683257853
145,193,33587200,12.343411380037875
146,194,33587200,11.964623937868538
147,195,33587200,12.347767713207919
148,197,33587200,12.346170034056803
149,199,33587200,12.341379476327672
150,200,33587200,11.934965185302318
151,201,33587200,12.325003568641021
152,202,33587200,11.938498986262651
153,203,33587200,12.346605723729846
154,205,33587200,12.344577305401414
155,207,33587200,12.348780093239407
156,208,33587200,11.864407378376153
157,209,33587200,12.3043422672723
158,210,33587200,11.86641940248887
159,211,33587200,12.347622452562097
160,213,33587200,12.347477195333964
161,215,33587200,12.343556541619702
162,216,33587200,11.87810681355865
163,217,33587200,12.302751298874455
164,218,33587200,11.819919650222271
165,219,33587200,12.347041444154481
166,221,33587200,12.346315260531174
167,223,33587200,12.343121067116677
168,224,33587200,11.661797052538015
169,225,33587200,12.348784633434061
170,226,33587200,11.709805504799538
171,227,33587200,12.349656412668075
172,229,33587200,12.348784633434061
173,231,33587200,12.34646049042215
174,232,33587200,11.706540420208867
175,233,33587200,12.333258546698623
176,234,33587200,11.849405804540828
177,235,33587200,12.347767713207919
178,237,33587200,12.34544395292976
179,239,33587200,12.341964487161302
180,240,33587200,11.855428661184972
181,241,33587200,12.34428693763392
182,242,33587200,11.850208498496814
183,243,33587200,12.34936580591385
184,245,33587200,12.344572768299994
185,247,33587200,12.345589162322929
186,248,33587200,11.808479258201144
187,249,33587200,12.348494067706566
188,250,33587200,11.916270488895195
189,251,33587200,12.346750960454386
190,253,33587200,12.347186691130275
191,255,33587200,12.346900739405372
192,256,33587200,11.943525422378748
193,257,33587200,12.34588412941947
194,258,33587200,11.89560321827861
195,259,33587200,12.329781419059929
196,261,33587200,12.34791297727155
197,263,33587200,12.348929921425727
198,264,33587200,12.031143881407951
199,265,33587200,12.332533983388062
200,266,33587200,11.687378492804477
201,267,33587200,12.346601185137262
202,269,33587200,12.34646049042215
203,271,33587200,12.34326622187024
204,272,33587200,12.093524330209902
205,273,33587200,12.34791297727155
206,274,33587200,11.877434741157133
207,275,33587200,12.347186691130275
208,277,33587200,12.349947033099808
209,279,33587200,12.297278446554737
210,280,33587200,12.152618349559281
211,281,33587200,12.34544395292976
212,282,33587200,11.979376207310775
213,283,33587200,12.347767713207919
214,285,33587200,12.342250210284057
215,287,33587200,12.343411380037875
216,288,33587200,12.158249239910328
217,289,33587200,12.346610262325768
218,290,33587200,11.947332026214468
219,291,33587200,12.346170034056803
220,293,33587200,12.346170034056803
221,295,33587200,12.345153544390941
222,296,33587200,12.2156950033315
223,297,33587200,12.306794877103167
224,298,33587200,11.94053622063144
225,299,33587200,12.346024810998912
226,301,33587200,12.345153544390941
227,303,33587200,12.347041444154481
228,304,33587200,12.247053023695411
229,305,33587200,12.347331941523397
230,306,33587200,12.051727354929456
231,307,33587200,12.344427582815447
232,309,33587200,12.347767713207919
233,311,33587200,11.952229798015743
234,312,33587200,12.244914327671184
235,313,33587200,12.122581462489952
236,314,33587200,12.160216881916948
237,315,33587200,12.179694296461575
238,317,33587200,12.248343746569795
239,318,33587200,12.205897477176993
240,320,33587200,12.041495894292737
241,321,33587200,12.347477195333964
242,322,33587200,12.173196366510806
243,323,33587200,12.345298746952471
244,325,33587200,12.350964312335188
245,327,33587200,12.293677580121454
246,328,33587200,12.076270577034261
247,329,33587200,12.335577721536467
248,330,33587200,12.114601638402918
249,331,33587200,12.34646049042215
250,333,33587200,12.34646049042215
251,335,33587200,12.347191230153333
252,336,33587200,12.023288247911589
253,337,33587200,12.308238045557104
254,338,33587200,12.225512720834681
255,339,33587200,12.349220507665502
256,341,33587200,12.348639348861047
257,343,33587200,12.345879591357384
258,344,33587200,12.01324249386948
259,345,33587200,12.298431169363772
260,346,33587200,12.20702869454225
261,347,33587200,12.343846875026415
262,349,33587200,12.34646049042215
263,351,33587200,12.347041444154481
264,352,33587200,12.052280902198657
265,353,33587200,12.347477195333964
266,354,33587200,12.204620119062197
267,355,33587200,12.34646049042215
268,357,33587200,12.349511107581336
269,359,33587200,12.346315260531174
270,360,33587200,12.046332932592296
271,361,33587200,12.34254048224073
272,362,33587200,12.160925741203052
273,363,33587200,12.325003568641021
274,365,33587200,12.347331941523397
275,367,33587200,12.347772252658173
276,368,33587200,12.027559337086217
277,369,33587200,12.346315260531174
278,370,33587200,12.200222375671041
279,371,33587200,12.34544395292976
280,373,33587200,12.343701706615843
281,375,33587200,12.346896200595891
282,376,33587200,12.042462991168364
283,377,33587200,12.347331941523397
284,378,33587200,12.238489340622381
285,379,33587200,12.348784633434061
286,381,33587200,12.346170034056803
287,383,33587200,12.344717957199695
288,384,33587200,11.905052217877428
289,385,33587200,12.348348789970496
290,386,33587200,12.156414228425
291,387,33587200,12.347191230153333
292,389,33587200,12.348784633434061
293,391,33587200,12.345879591357384
294,392,33587200,11.997176731466585
295,393,33587200,12.348494067706566
296,394,33587200,12.197528550733638
297,395,33587200,12.345298746952471
298,397,33587200,12.341379476327672
299,399,33587200,12.311847447928713
300,400,33587200,11.958902665857709
301,401,33587200,12.259073072575456
302,402,33587200,12.213989183590943
303,403,33587200,12.345734375132096
304,405,33587200,12.343992046851541
305,407,33587200,12.344282400745938
306,408,33587200,11.981974525746804
307,409,33587200,12.347041444154481
308,410,33587200,11.992242061395116
309,411,33587200,12.343701706615843
310,413,33587200,12.343125603151048
311,415,33587200,12.332244181900895
312,416,33587200,12.007745087103629
313,417,33587200,12.319072607162676
314,418,33587200,12.110272884248374
315,419,33587200,12.34588412941947
316,421,33587200,12.344572768299994
317,423,33587200,12.347186691130275
318,424,33587200,12.072524575692125
319,425,33587200,12.302611601754815
320,426,33587200,11.971861107705118
321,427,33587200,12.346900739405372
322,429,33587200,12.347186691130275
323,431,33587200,12.345298746952471
324,432,33595392,12.170096073627588
325,433,33595392,11.982845060535935
326,434,33595392,12.307631888319298
327,435,33595392,12.33380288980989
328,437,33619968,12.23744005031842
329,439,33619968,12.307112910364085
330,440,33619968,12.337756874764676
331,441,33619968,12.336593372358886
332,442,33619968,12.290843605263937
333,443,33619968,12.342535420577251
334,445,33619968,12.302213192946969
335,447,33619968,12.316486376385148
336,448,33619968,12.336738232292708
337,449,33619968,12.322558109786694
338,450,33619968,12.303797968663712
339,451,33619968,12.340215891585117
340,453,33619968,12.333986475158293
341,455,33619968,12.302933494932994
342,456,33619968,12.33427607599418
343,457,33619968,12.335434615346513
344,458,33619968,12.33630366269681
345,459,33619968,12.321690997936976
346,461,33619968,12.341375547093845
347,463,33619968,12.335574921994477
348,464,33619968,12.341375547093845
349,465,33619968,12.33630366269681
350,466,33619968,12.337462582994469
351,467,33619968,12.313748155408293
352,469,33619968,12.328920661009732
353,471,33619968,12.293715499311084
354,472,33619968,12.336883095628549
355,473,33619968,12.33239391361667
356,474,33619968,12.335434615346513
357,475,33619968,12.338042124802241
358,477,33619968,12.302357246596632
359,479,33619968,12.332538674944123
360,480,33619968,12.280643284231413
361,481,33619968,12.312593685852772
362,482,33619968,12.337897234245954
363,483,33619968,12.301637012082473
364,485,33619968,12.345145933203224
365,487,33619968,12.333986475158293
366,488,33619968,12.309708458813514
367,489,33619968,12.343985569052034
368,490,33619968,12.334420881512036
369,491,33619968,12.275621184631433
370,493,33619968,12.299616304287383
371,495,33619968,12.234594385691405
372,496,33619968,12.25242497660302
373,497,33619968,12.303509797255385
374,498,33619968,12.329644093959166
375,499,33619968,12.308550240313506
376,501,33619968,12.338187018761623
377,503,33619968,12.310573884934472
378,504,33619968,12.339926011759278
379,505,33619968,11.866458797547502
380,506,33619968,12.345726197090416
381,507,33619968,12.037224489795918
382,509,33619968,12.021247808140416
383,511,33619968,12.047438716391126
384,512,33619968,12.337462582994469
385,513,33619968,12.054211735549991
386,514,33619968,12.334131273876308
387,515,33619968,11.959528234936299
388,517,33619968,12.027436318384645
389,519,33619968,12.087078821346909
390,520,33619968,12.350951027808035
391,521,33619968,12.009430376672105
392,522,33619968,12.344130602641616
393,525,33619968,12.08471530080258
394,527,33619968,12.089582380405796
395,528,33619968,12.34746731609069
396,529,33619968,12.024549847922563
397,530,33619968,12.346596695207335
398,532,33619968,12.341371016765486
399,535,33619968,12.079574361671854
400,536,33619968,12.344275639639335
401,537,33619968,12.104625541144244
402,538,33619968,12.344855821713969
403,539,33619968,12.07152438866755
404,541,33619968,12.123202432431652
405,543,33619968,12.042191408701333
406,544,33619968,12.343260452221955
407,545,33619968,12.065701792415181
408,546,33619968,12.346161430804694
409,548,33619968,12.34369098006503
410,550,33619968,12.329644093959166
411,551,33619968,12.08374235510278
412,552,33619968,12.345000875754167
413,553,33619968,12.056148282875807
414,554,33619968,12.344126070290356
415,555,33619968,12.122922658420283
416,557,33619968,12.089725844888166
417,559,33619968,12.02867994950955
418,560,33619968,12.34602088322974
419,561,33619968,12.09125199602952
420,562,33619968,12.34848319565239
421,564,33619968,12.344710771082505
422,566,33619968,12.344855821713969
423,567,33619968,12.037082268630554
424,568,33619968,12.307977971553973
425,569,33619968,12.042743541615922
426,570,33619968,12.345000875754167
427,571,33619968,11.941317708969708
428,573,33619968,12.035431886979955
429,575,33628160,11.925657560635162
430,576,33628160,12.344237700696608
431,577,33628160,11.923898459417524
432,578,33628160,12.34626806929121
433,579,33628160,12.001244800246676
434,581,33628160,12.04388324924001
435,583,33628160,11.966941960536467
436,584,33628160,12.34800891690323
437,585,33628160,11.995354265771383
438,586,33628160,12.344672723461631
439,587,33628160,12.02912760623002
440,589,33628160,12.049407063639256
441,591,33628160,11.926736112465735
442,592,33628160,12.345687895827972
443,593,33628160,11.93621884052261
444,594,33628160,12.347428579821148
445,595,33628160,11.979351497963968
446,597,33628160,11.982907298606301
447,599,33628160,12.000285481821946
448,600,33628160,12.344962755672734
449,601,33628160,12.036020558633624
450,602,33628160,12.347138431735829
451,603,33628160,12.056180645383337
452,605,33628160,12.01112098500153
453,607,33628160,12.00823875241749
454,608,33628160,12.346123020813332
455,609,33628160,11.995491189270172
456,610,33628160,12.346848297286371
457,611,33628160,12.025552926771354
458,613,33628160,11.996860596201321
459,615,33628160,11.874044207193812
460,616,33628160,12.34800891690323
461,617,33628160,11.92375893754665
462,618,33628160,12.345397829543423
463,619,33628160,11.951966317992301
464,621,33628160,11.969395396780651
465,623,33628160,11.942594280807311
466,624,33628160,12.347428579821148
467,625,33628160,11.961353076277629
468,626,33628160,12.348589308540308
469,627,33628160,11.952650271126391
470,629,33628160,11.984547178149368
471,631,33628160,11.925792897612016
472,632,33628160,12.346703235174793
473,633,33628160,11.892453519464128
474,634,33628160,12.3430777898699
475,635,33628160,11.976352265766343
476,637,33628160,12.02005095665253
477,639,33628160,12.020463429769201
478,640,33628160,12.347428579821148
479,641,33628160,12.008650415237073
480,642,33628160,12.345832934081834
481,643,33628160,11.963672276345712
482,645,33628160,11.890439323265095
483,647,33628160,11.849680185602292
484,648,33628160,12.347863827518479
485,649,33628160,11.970213432432047
486,650,33628160,12.347424046152446
487,652,33628160,12.345832934081834
488,654,33628160,12.343512730884585
489,655,33628160,11.968027993122723
490,656,33628160,12.341918097001848
491,657,33628160,11.959311222629976
492,658,33628160,12.349314874816338
493,659,33628160,12.30247376298132
494,661,33628160,12.245989246391641
495,663,33628160,12.329465147648198
496,664,33628160,12.28406640553226
497,665,33628160,12.28621617908825
498,666,33628160,12.34264287950565
499,667,33628160,12.30131718723022
500,669,33628160,12.262851445822982
501,671,33628160,12.343367747140553
502,672,33628160,12.338146072857382
503,673,33628160,12.313429256155679
504,674,33628160,12.336991832486548
505,675,33628160,12.342207999788597
506,677,33628160,12.31660422567246
507,679,33628160,12.344233169370824
508,680,33628160,12.336847001886763
509,681,33628160,12.273875325934297
510,682,33628160,12.33800574190767
511,683,33628160,12.329031196025458
512,685,33628160,12.314439296159977
513,687,33628160,12.319925263090408
514,688,33628160,12.301029202185408
515,689,33628160,12.294989124755814
516,690,33628160,12.312419381826343
517,691,33628160,12.341483268356255
518,693,33628160,11.984547178149368
519,695,33628160,11.958907188397056
520,696,33628160,12.346703235174793
521,697,33628160,12.07251949640874
522,698,33628160,12.34757365897756
523,700,33628160,12.34597797574358
524,701,33628160,12.100604235695101
525,703,33628160,12.03615841209938
526,704,33628160,12.347863827518479
527,705,33628160,12.066978805737923
528,706,33628160,12.346703235174793
529,708,33628160,12.346703235174793
530,710,33628160,12.332937860670151
531,711,33628160,12.107714508737619
532,712,33628160,12.347138431735829
533,713,33628160,12.046920720261141
534,714,33628160,12.344382704878225
535,716,33628160,12.328452641377108
536,718,33628160,12.343657718034583
537,719,33628160,12.088355146045961
538,720,33628160,12.344527712466526
539,721,33628160,12.094198207529526
540,722,33628160,12.34293281634304
541,724,33628160,12.346413121177331
542,726,33628160,12.34757365897756
543,727,33628160,12.093780658674193
544,728,33628160,12.344382704878225
545,729,33628160,11.99412209493102
546,730,33628160,12.349750255510225
547,732,33628160,12.349314874816338
548,734,33628160,12.346553643442274
549,735,33628160,11.941372924660124
550,736,33628160,12.254414545470446
551,737,33628160,11.994806603033286
552,738,33628160,12.346703235174793
553,740,33628160,12.344092699921555
554,742,33628160,12.338440325535437
555,743,33628160,12.03037128408255
556,744,33628160,12.347578192756131
557,745,33628160,12.115391820888467
558,746,33628160,12.346988829457569
559,748,33628160,12.343512730884585
560,750,33628160,12.306651847617529
561,751,33628160,12.024727310175557
