idx,og Index,data (B),bandwidth (GB/s)
0,0,33570816,11.483224364504325
1,1,33570816,12.328690998070865
2,2,33570816,11.061031224166431
3,5,33570816,12.336809874793794
4,6,33570816,12.322025387820542
5,9,33570816,12.344063374212014
6,11,33570816,12.341454035726484
7,13,33570816,12.342030264260819
8,15,33570816,12.342615622349408
9,17,33570816,12.345516005754481
10,19,33570816,12.342611084476262
11,21,33570816,12.341744411884402
12,23,33570816,12.341889605087514
13,25,33570816,12.345951861887572
14,27,33570816,12.342034801706887
15,29,33570816,12.344208621982968
16,31,33570816,12.346242449740945
17,33,33570816,12.347695594219786
18,35,33570816,12.342030264260819
19,37,33570816,12.341454035726484
20,39,33570816,12.345661287712744
21,41,33570816,12.345080180394856
22,43,33570816,12.347118836567033
23,45,33570816,12.345225452095658
24,47,33570816,12.342906053171374
25,49,33570816,12.345951861887572
26,51,33570816,12.345665827829036
27,53,33570816,12.34552054576392
28,55,33570816,12.346968979224348
29,57,33570816,12.34435841232685
30,59,33570816,12.276029523188223
31,61,33570816,12.346537592031325
32,63,33570816,12.316966511653504
33,64,33587200,12.220810876009374
34,65,33587200,12.346750960454386
35,67,33587200,12.34544395292976
36,69,33587200,12.345875053298634
37,71,33587200,12.34907067242784
38,73,33587200,12.344713419994884
39,75,33587200,12.346170034056803
40,77,33587200,12.347908437717825
41,79,33587200,12.348348789970496
42,81,33587200,12.348053705092573
43,83,33587200,12.347327402396882
44,85,33587200,12.319940196174448
45,87,33587200,12.306357483504662
46,89,33587200,12.348198975885365
47,91,33587200,12.299579604212747
48,93,33587200,12.346891661789746
49,95,33587200,12.34616549578453
50,97,33587200,12.346024810998912
51,99,33587200,12.346020272833403
52,101,33587200,12.347763173761003
53,103,33587200,12.34703690524155
54,105,33587200,12.349651871832357
55,107,33587200,12.346891661789746
56,109,33587200,12.350673644024575
57,111,33587200,12.346896200595891
58,113,33587200,12.345729837180102
59,115,33587200,12.34616549578453
60,117,33587200,12.346315260531174
61,119,33587200,12.334707928767825
62,121,33587200,12.34703690524155
63,123,33587200,12.347186691130275
64,125,33587200,12.31863434042316
65,127,33587200,12.346020272833403
66,128,33603584,12.216677476303628
67,129,33603584,12.345802856352432
68,131,33603584,12.345948003384487
69,133,33603584,12.270924807702983
70,135,33603584,12.341595076522584
71,137,33603584,12.343041177282998
72,139,33603584,12.306160737206895
73,141,33603584,12.346964128178683
74,143,33603584,12.34550803695028
75,145,33603584,12.346093153829507
76,147,33603584,12.312793680106699
77,149,33603584,12.343041177282998
78,151,33603584,11.787716054384685
79,153,33603584,12.344637268011697
80,155,33603584,12.346959591535592
81,157,33603584,12.346233771577886
82,159,33603584,12.348847122878503
83,161,33603584,12.041149104767966
84,163,33603584,12.344927510675754
85,165,33603584,12.34550803695028
86,167,33603584,12.346378928742539
87,169,33603584,12.342460882979505
88,171,33603584,12.346814420716921
89,173,33603584,12.347685496838448
90,175,33603584,12.346669253311935
91,177,33603584,12.344786922681017
92,179,33603584,12.344061358135393
93,181,33603584,12.346814420716921
94,183,33603584,12.275084528321736
95,185,33603584,12.264045944391404
96,187,33603584,12.276806617077554
97,189,33603584,12.317275298762869
98,191,33603584,12.346088617826439
99,192,33619968,12.146187928657517
100,193,33619968,12.343545956805626
101,195,33619968,12.344851288830139
102,197,33619968,12.346156896962006
103,199,33619968,12.347757550337727
104,201,33619968,12.347177095487252
105,203,33619968,12.34659216104496
106,205,33619968,12.34528646085784
107,207,33619968,12.344996342763814
108,209,33619968,12.347172560898576
109,211,33619968,12.346882354150937
110,213,33619968,12.345290994061255
111,215,33619968,12.3467372558928
112,217,33619968,12.347177095487252
113,219,33619968,12.350801296651689
114,221,33619968,12.344271107181568
115,223,33619968,12.346886888526456
116,225,33619968,12.348623799295371
117,227,33619968,12.348043263001085
118,229,33619968,12.346306515528928
119,231,33619968,12.348478660104313
120,233,33619968,12.348338059766453
121,235,33619968,12.27992110453649
122,237,33619968,12.3467372558928
123,239,33619968,12.345726197090416
124,241,33619968,12.350079915599135
125,243,33619968,12.347177095487252
126,245,33619968,12.349063773314757
127,247,33619968,12.345000875754167
128,249,33619968,12.344710771082505
129,251,33619968,12.34325592050965
130,253,33619968,12.344416147481033
131,255,33619968,12.346451603663102
132,256,33636352,12.250109986160682
133,257,33636352,12.255966140132513
134,259,33636352,12.347385330126484
135,261,33636352,12.344195250272307
136,263,33636352,12.343325514556723
137,265,33636352,12.346664699208281
138,267,33636352,12.34579008412491
139,269,33636352,12.346515144841357
140,271,33636352,12.348400701336004
141,273,33636352,12.344489719822358
142,275,33636352,12.347965521798505
143,277,33636352,12.346515144841357
144,279,33636352,12.345065108563208
145,281,33636352,12.344920123668116
146,283,33636352,12.349130602548
147,285,33636352,12.347965521798505
148,287,33636352,12.352028390713087
149,289,33636352,12.347385330126484
150,291,33636352,12.34579008412491
151,293,33636352,12.348110578236188
152,295,33636352,12.345794615489927
153,297,33636352,12.346080098192079
154,299,33636352,12.34912606873379
155,301,33636352,12.344050285808233
156,303,33636352,12.347095254736013
157,305,33636352,12.343905324748912
158,307,33636352,12.237986989361547
159,309,33636352,12.232859773820296
160,311,33636352,12.181399404915387
161,313,33636352,12.346229642019614
162,315,33636352,12.318305250972406
163,317,33636352,12.347244823157192
164,319,33636352,12.343615412844036
165,320,33652736,12.127601546440793
166,321,33652736,12.344264363667309
167,323,33652736,12.345858438817947
168,325,33652736,12.34803284126234
169,327,33652736,12.344268891706829
170,328,33652736,12.105544572120877
171,331,33652736,12.346583154539504
172,333,33652736,12.345283256277883
173,334,33652736,12.187050401397576
174,337,33652736,12.348612811277166
175,339,33652736,12.346438204588612
176,341,33652736,12.349052356092027
177,343,33652736,12.346583154539504
178,345,33652736,12.344264363667309
179,347,33652736,12.346438204588612
180,348,33652736,12.038332084286514
181,351,33652736,12.347162988379567
182,353,33652736,12.347892387968956
183,355,33652736,12.34542817911118
184,357,33652736,12.345862968026998
185,359,33652736,12.344554164893696
186,361,33652736,12.346152844318683
187,363,33652736,12.345283256277883
188,365,33652736,12.31246908412922
189,367,33652736,12.342815561612966
190,369,33767424,12.258135292654904
191,371,33767424,12.345328506942172
192,373,33767424,12.345328506942172
193,375,33767424,12.346195147651942
194,377,33767424,12.348940312802736
195,379,33767424,12.346772975726156
196,381,33767424,12.329754255130364
197,383,33767424,12.345184078652535
198,385,33767424,12.346917441195925
199,387,33767424,12.346344113777846
200,389,33767424,12.343888888482715
201,391,33767424,12.346484054928313
202,393,33767424,12.348077802115826
203,394,33783808,12.209473309876055
204,395,33783808,12.34886246460337
205,397,33783808,12.346840599349981
206,399,33783808,12.347995869845303
207,401,33783808,12.31386239552348
208,403,33783808,12.294360334086512
209,405,33783808,12.349006908889004
210,407,33783808,12.343809042556495
211,409,33783808,12.346840599349981
212,411,33783808,12.344530706756169
213,413,33783808,12.34886246460337
214,415,33783808,12.345974288331885
215,417,33783808,12.345829914981245
216,419,33783808,12.346551815502348
217,421,33783808,12.305250923427206
218,423,33783808,12.300380912018863
219,425,33783808,12.346840599349981
220,427,33783808,12.34583442659734
221,429,33783808,12.345685545007157
222,431,33783808,12.345541178409505
223,433,33783808,12.347851449210474
224,435,33783808,12.345108098873974
225,437,33783808,12.345252455343031
226,439,33783808,12.34511260996253
227,441,33783808,12.347273800452097
228,443,33783808,12.344968256763936
229,445,33783808,12.347562618075335
230,447,33783808,12.346551815502348
231,449,33783808,12.345829914981245
232,451,33783808,12.324792074497852
233,453,33783808,12.345108098873974
234,455,33783808,12.347707031953858
235,457,33783808,12.346840599349981
236,458,33800192,12.129410747242817
237,459,33800192,12.348644835263437
238,460,33800192,11.381294779921355
239,461,33800192,12.345032193688802
240,462,33800192,11.84047260732732
241,463,33800192,12.346186565891188
242,464,33800192,11.72923390839798
243,465,33800192,12.310357650279295
244,466,33800192,11.235652850881129
245,467,33800192,12.345902462080398
246,468,33800192,12.196212123398986
247,469,33800192,12.343012561682759
248,470,33800192,12.247125293539822
249,471,33800192,12.343738290862106
250,472,33800192,11.929805142916843
251,473,33800192,12.342872834805828
252,474,33800192,12.043526053597663
253,475,33800192,12.349073441130146
254,476,33800192,11.980683561461266
255,477,33800192,12.345758160390211
256,478,33800192,12.235771109843297
257,479,33800192,12.346046767143923
258,480,33800192,12.247551318941456
259,481,33800192,12.168677067106273
260,482,33800192,12.094965695937868
261,483,33800192,12.201570239311865
262,484,33800192,12.201288347655327
263,485,33800192,12.307775666209194
264,486,33800192,11.92010752016973
265,487,33800192,12.133033287756941
266,488,33800192,12.011747279958833
267,489,33800192,12.299033658042958
268,490,33800192,11.947756786057543
269,491,33800192,12.224305325246048
270,492,33800192,12.034739609592416
271,493,33800192,12.32759860108081
272,494,33800192,12.055067807587944
273,495,33800192,12.346186565891188
274,496,33800192,12.01844429589384
275,497,33800192,12.346042257559626
276,498,33800192,11.789327998169526
277,499,33800192,12.340998096284066
278,500,33800192,12.20523601650803
279,501,33800192,12.347201329106571
280,502,33800192,11.669366602117252
281,503,33800192,12.344171064404799
282,504,33800192,12.123146074830949
283,505,33800192,12.321415044508125
284,506,33800192,11.69300703340756
285,507,33800192,12.346619511127784
286,508,33800192,12.125790369235395
287,509,33800192,12.345032193688802
288,510,33800192,11.763331467916217
289,511,33800192,12.346768343065795
290,512,33800192,12.090392699447422
291,513,33800192,12.348640323780971
292,514,33800192,11.689124990965187
293,515,33800192,12.348351595759643
294,516,33800192,12.074364804498211
295,517,33800192,12.34489242108262
296,518,33800192,11.708690812990753
297,519,33800192,12.343733782964064
298,520,33800192,12.029257265203045
299,521,33800192,12.348929065304638
300,522,33652736,11.603195394681721
301,523,33652736,12.34774287668378
302,524,33652736,12.057383463129263
303,525,33652736,12.347892387968956
304,526,33652736,11.706659486702108
305,527,33652736,12.34614831489694
306,528,33652736,12.150721690578594
307,529,33652736,12.346728107893925
308,530,33652736,11.472564051077907
309,531,33652736,12.348757812293593
310,532,33652736,12.140061470974445
311,533,33652736,12.344413790725458
312,534,33652736,11.65618538097214
313,535,33652736,12.345858438817947
314,536,33652736,11.888229348927727
315,537,33652736,12.347457456102212
316,538,33669120,12.23850996699478
317,539,33669120,12.343179417769438
318,540,33669120,11.539708843514099
319,541,33669120,12.349549433233664
320,542,33669120,11.789530889063112
321,543,33669120,12.345062121081568
322,544,33669120,11.829960342069414
323,545,33669120,12.34404376072387
324,546,33669120,11.500736790544487
325,547,33669120,12.3457818637301
326,548,33669120,12.279646255248254
327,549,33669120,12.34636134017443
328,550,33669120,12.189311066894891
329,551,33669120,12.346220993231219
330,552,33669120,12.115199233127786
331,553,33669120,12.345057594663803
332,554,33669120,12.020118069419334
333,555,33669120,12.343754124468768
334,556,33669120,11.709621616658632
335,557,33669120,12.345057594663803
336,558,33669120,12.109626091585262
337,559,33669120,12.346365867548304
338,560,33669120,12.17337479210355
339,561,33669120,12.347520456272425
340,562,33669120,12.247199839367246
341,563,33669120,12.10920363091391
342,564,33669120,12.014760663780242
343,565,33669120,12.346216465963595
344,566,33669120,11.93963712058214
345,567,33669120,12.349839341520314
346,568,33669120,12.10753585247623
347,569,33669120,12.34680051090027
348,570,33669120,11.909904014347442
349,571,33669120,12.345057594663803
350,572,33669120,12.036064093448342
351,573,33669120,12.344767910830829
352,574,33669120,11.967613022610387
353,575,33669120,12.346510745265428
354,576,33669120,12.04888245215302
355,577,33669120,12.347230656844365
356,578,33669120,11.744257999524217
357,579,33669120,12.34404376072387
358,580,33669120,12.20911751555552
359,581,33669120,12.347814797741028
360,582,33669120,11.592093620566777
361,583,33669120,12.184935016806747
362,584,33669120,12.20103865550969
363,585,33669120,12.139945828537803
364,586,33669120,11.559490531407135
365,587,33669120,11.963258653691385
366,588,33669120,12.133921341159503
367,589,33669120,11.99599386752471
368,590,33669120,11.632210768592417
369,591,33669120,12.325245632788134
370,592,33669120,12.10377523992488
371,593,33669120,12.345496672642184
372,594,33669120,11.701157079020149
373,595,33669120,12.343898940897319
374,596,33669120,12.027675450754902
375,597,33669120,12.347230656844365
376,598,33669120,11.541231759612517
377,599,33669120,12.346071595152674
378,600,33669120,11.897917650970923
379,601,33669120,12.345637003118208
380,602,33685504,12.235072599368296
381,603,33685504,12.342086673603681
382,604,33685504,11.628353910914022
383,605,33685504,12.346718977706232
384,606,33685504,12.253016921532396
385,607,33685504,11.813800318373385
386,608,33685504,11.624116514797967
387,609,33685504,12.346144274549804
388,610,33685504,11.5625709885241
389,611,33685504,12.346863793239951
390,612,33685504,12.255013984731757
391,613,33685504,12.346284551486736
392,614,33685504,12.238344227845968
393,615,33685504,12.316531400743624
394,616,33685504,12.238628799967447
395,617,33685504,12.345415790754473
396,618,33685504,11.85517789187578
397,619,33685504,12.346868318780118
398,620,33685504,11.945447162976583
399,621,33685504,12.280175569068346
400,622,33685504,12.26686709957845
401,623,33685504,12.346144274549804
402,624,33685504,12.19891705222659
403,625,33685504,12.345994950990598
404,626,33685504,12.241617606442516
405,627,33685504,12.2988272749843
406,628,33685504,12.120261708821591
407,629,33685504,12.333265965454924
408,630,33685504,12.010732303198619
409,631,33685504,12.343823380247834
410,632,33685504,12.165504728169955
411,633,33685504,11.794867269899362
412,634,33685504,11.838911672883306
413,635,33685504,12.34498145623525
414,636,33685504,12.027616150363484
415,637,33685504,12.347732757786451
416,638,33685504,11.884489500280305
417,639,33685504,12.345271009185609
418,640,33685504,11.981750024276153
419,641,33685504,12.347737283963651
420,642,33685504,11.864531165193293
421,643,33685504,12.347447615312293
422,644,33685504,12.273446176178247
423,645,33685504,12.346139749540393
424,646,33685504,11.60963000695499
425,647,33685504,12.347877597102682
426,648,33685504,12.028440757467985
427,649,33685504,12.346574165569535
428,650,33685504,11.75535273207968
429,651,33685504,12.346863793239951
430,652,33685504,12.166343957280285
431,653,33685504,12.343823380247834
432,654,33685504,11.787471069776165
433,655,33685504,12.342520804448444
434,656,33685504,12.048950521171461
435,657,33685504,12.346718977706232
436,658,33685504,11.688911991460992
437,659,33685504,12.3475924479391
438,660,33685504,11.935965927109669
439,661,33685504,12.346289076602291
440,662,33685504,11.697874654555834
441,663,33685504,12.347157960251433
442,664,33685504,12.018137000787402
443,665,33685504,12.34570536408016
444,666,33701888,12.215325641613
445,667,33701888,12.346642048035639
446,668,33701888,11.65125629461023
447,669,33701888,12.330168035775241
448,670,33701888,11.9526135567673
449,671,33701888,12.347949384304181
450,672,33701888,12.081920150510065
451,673,33701888,12.344905392773104
452,674,33701888,11.49132623957016
453,675,33701888,12.345773659331417
454,676,33701888,12.263116068803507
455,677,33701888,12.34765984652389
456,678,33701888,12.16116209451833
457,679,33701888,12.346936061474771
458,680,33701888,12.010818396977006
459,681,33701888,12.34722104171002
460,682,33701888,12.00438830204056
461,683,33701888,12.34707628820052
462,684,33701888,11.781462958988124
463,685,33701888,12.342012052746146
464,686,33701888,12.31156974314463
465,687,33701888,12.344905392773104
466,688,33701888,12.229505567379167
467,689,33701888,12.0946806124518
468,690,33701888,12.202729202934863
469,691,33701888,12.347080811696317
470,692,33701888,12.158915701945029
471,693,33701888,12.347225565311883
472,694,33701888,11.718279143674744
473,695,33701888,12.346646571213263
474,696,33701888,11.852801377520821
475,697,33701888,12.348383716435437
476,698,33701888,12.108033535577661
477,699,33701888,12.344905392773104
478,700,33701888,12.04584886487638
479,701,33701888,12.347800089690567
480,702,33701888,11.97462942019392
481,703,33701888,12.333200249577786
482,704,33701888,12.019316848889988
483,705,33701888,12.136632824043447
484,706,33701888,11.687200077124263
485,707,33701888,12.185504328685022
486,708,33701888,12.19622886226054
487,709,33701888,12.197641390612468
488,710,33701888,11.724414464403436
489,711,33701888,12.272833474626884
490,712,33701888,12.17535722917399
491,713,33701888,12.30984293958653
492,714,33701888,11.738523536685184
493,715,33701888,12.34447130529061
494,716,33701888,12.114575174276554
495,717,33701888,12.340565891268495
496,718,33701888,11.501871935707797
497,719,33701888,12.31272121468968
498,720,33701888,11.920415698555589
499,721,33701888,12.3463570945264
500,722,33701888,11.570609551569584
501,723,33701888,12.299061382380849
502,724,33701888,11.983076719039616
503,725,33701888,12.347515082725549
504,726,33701888,11.452339697464485
505,727,33701888,12.343313887904083
506,728,33701888,12.007946891505549
507,729,33701888,12.346501831173061
508,730,33718272,12.156125530325536
509,731,33718272,12.346425047097874
510,732,33718272,11.298193436190585
511,733,33718272,12.324037930157282
512,734,33718272,11.575348325299062
513,735,33718272,12.330820842495678
514,736,33718272,11.877678999490277
515,737,33718272,12.348156763708914
516,738,33718272,11.127099638185728
517,739,33718272,12.344829404166703
518,740,33718272,12.281232790095254
519,741,33718272,12.346131200843622
520,742,33718272,12.162720433551783
521,743,33718272,12.34628038257855
522,744,33718272,12.174665576715878
523,745,33718272,12.345267825858365
524,746,33718272,12.05998109361593
525,747,33718272,12.345118668591999
526,748,33718272,12.172977781371934
527,749,33718272,12.306621389215753
528,750,33718272,12.231052504809966
529,751,33718272,12.344110821529496
530,752,33718272,12.175087598683925
531,753,33718272,12.348590899369208
532,754,33718272,12.279658424452194
533,755,33718272,12.335580094650796
534,756,33718272,12.311222626937694
535,757,33718272,12.346131200843622
536,758,33718272,11.862301594421478
537,759,33718272,12.343677000816
538,760,33718272,11.990266477059972
539,761,33718272,12.241709919052447
540,762,33718272,11.87125157992205
541,763,33718272,12.348446184090635
542,764,33718272,11.750651772916425
543,765,33718272,12.332259508615468
544,766,33718272,11.771520258735356
545,767,33718272,12.35003823873276
546,768,33718272,11.902365945910647
547,769,33718272,12.33471368242996
548,770,33718272,11.654857511028093
549,771,33718272,12.347143899202301
550,772,33718272,12.245693449743598
551,773,33718272,12.345697238112812
552,774,33718272,11.41446481798378
553,775,33718272,12.343238692106071
554,776,33718272,11.796031544456735
555,777,33718272,12.344684777037417
556,778,33718272,11.386711108184365
557,779,33718272,12.346859060997415
558,780,33718272,11.88116115760576
559,781,33718272,12.344110821529496
560,782,33718272,11.513373201967617
561,783,33718272,12.34757796364382
