idx,og Index,data (B),bandwidth (GB/s)
0,1,117784576,12.345379655462205
1,3,117784576,12.347493052053176
2,5,117784576,12.346416203554284
3,7,117784576,12.345795030240152
4,9,117784576,12.355285088333499
5,11,117784576,12.356487926980169
6,13,117784576,12.347160399714616
7,14,117841920,10.965353156502836
8,15,117841920,12.347952593184973
9,17,117841920,12.347746871541203
10,19,117841920,12.348201020910496
11,21,117841920,12.346794689581765
12,23,117841920,12.34600821524198
13,25,117841920,12.346463530278779
14,27,117841920,12.347001673167492
15,29,117841920,12.346587712935616
16,31,117841920,12.346422136614958
17,33,117841920,12.347250062631097
18,35,117841920,12.348699200376071
19,37,117841920,12.35781586084722
20,39,117841920,12.345470158947434
21,41,117841920,12.347374261110648
22,43,117841920,12.346463530278779
23,45,117841920,12.346048312660884
24,47,117841920,12.356862125398086
25,49,117841920,12.356115826422888
26,51,117841920,12.346297957288833
27,53,117841920,12.346173780460655
28,55,117841920,12.33872644722715
29,57,117841920,12.34770417545525
30,59,117841920,12.357649983237117
31,61,117841920,12.345759875739814
32,63,117841920,12.347084468544942
33,65,117841920,12.347043070717417
34,67,117841920,12.346339350119989
35,69,117841920,12.34691887890043
36,71,117841920,12.359308959755184
37,73,117841920,12.356323122651181
38,75,117841920,12.347043070717417
39,76,117841920,12.26757621253292
40,78,117899264,10.587578725964184
41,79,117899264,12.346841812092043
42,81,117899264,12.345352448400241
43,83,117899264,12.347255588005849
44,85,117899264,12.358355123062836
45,87,117899264,12.358852583964985
46,89,117899264,12.357857702206054
47,91,117899264,12.357567558530848
48,93,117899264,12.35748466284033
49,95,117899264,12.347212916082205
50,97,117899264,12.35354839818323
51,99,117899264,12.346883188435454
52,101,117899264,12.346965941954236
53,103,117899264,12.34622120021727
54,105,117899264,12.346757767248235
55,107,117899264,12.34671639174543
56,109,117899264,12.345642018754393
57,111,117899264,12.347462486362986
58,113,117899264,12.356945867959288
59,115,117899264,12.347421106136853
60,117,117899264,12.347048696582318
61,119,117899264,12.346924565056185
62,121,117899264,12.356531442328542
63,123,117899264,12.34621990734099
64,125,117899264,12.355868419135891
65,127,117899264,12.347543954493728
66,129,117899264,12.347957777471025
67,131,117899264,12.346593559855119
68,133,117899264,12.346386690616782
69,135,117899264,12.357194536681444
70,137,117899264,12.34791639392508
71,139,117899264,12.357816252275441
72,141,117899264,12.347669391654076
73,142,117956608,10.702868979451733
74,143,117956608,12.347095674634415
75,145,117956608,12.34597782307232
76,147,117956608,12.346763528814025
77,149,117956608,12.345109527797494
78,151,117956608,12.346061816445122
79,153,117956608,12.346020465718764
80,155,117956608,12.34618457804581
81,157,117956608,12.358562421912039
82,159,117956608,12.346804884518047
83,161,117956608,12.355247245075617
84,163,117956608,12.346763528814025
85,165,117956608,12.34630992662024
86,167,117956608,12.357070954736892
87,169,117956608,12.34643398544741
88,171,117956608,12.34606052423073
89,173,117956608,12.346268574231877
90,175,117956608,12.346639463364198
91,177,117956608,12.356863834989012
92,179,117956608,12.346682110581346
93,181,117956608,12.346723465739945
94,183,117956608,12.346475338943835
95,185,117956608,12.34531625368952
96,187,117956608,12.346475338943835
97,189,117956608,12.347137032563527
98,191,117956608,12.346308634353912
99,192,117956608,12.28315719956789
100,195,117956608,12.358603856695165
101,196,117956608,12.22279492459647
102,199,117956608,12.346516692717282
103,201,117956608,12.357360934048913
104,203,117956608,12.357278081428172
105,205,117956608,12.346392632228005
106,206,118013952,10.549613885083232
107,207,118013952,12.347225283960455
108,209,118013952,12.345076052892187
109,211,118013952,12.346479943003668
110,213,118013952,12.346522568396619
111,215,118013952,12.345117377202833
112,217,118013952,12.357153223359296
113,219,118013952,12.356119477088024
114,221,118013952,12.34619061478225
115,223,118013952,12.346603944964091
116,225,118013952,12.34734800903719
117,227,118013952,12.347182653715237
118,229,118013952,12.347430688359026
119,231,118013952,12.347389348559702
120,233,118013952,12.35876952624907
121,235,118013952,12.357444359593044
122,237,118013952,12.346727949415367
123,239,118013952,12.347059931925523
124,241,118013952,12.347556001317056
125,243,118013952,12.347183945536523
126,245,118013952,12.346438609570372
127,247,118013952,12.346479943003668
128,248,118013952,12.304750552762059
129,251,118013952,12.357444359593044
130,252,118013952,12.249289235984863
131,255,118013952,12.348092162797252
132,257,118013952,12.347225283960455
133,259,118013952,12.346769284785996
134,261,118013952,12.346935920805652
135,263,118013952,12.346233238177447
136,265,118013952,12.347761416719278
137,267,118013952,12.346314610930971
138,269,118013952,12.358313968155134
139,270,118071296,10.662439906472816
140,271,118071296,12.344627004398516
141,273,118071296,12.345123928230313
142,275,118071296,12.346527147317433
143,277,118071296,12.357609187337289
144,279,118071296,12.356409051569415
145,281,118071296,12.346321872722081
146,283,118071296,12.346031401467789
147,285,118071296,12.346898982832489
148,287,118071296,12.346651090000629
149,289,118071296,12.346940299272243
150,291,118071296,12.34780800838642
151,293,118071296,12.346652381083342
152,295,118071296,12.346444520244413
153,297,118071296,12.345866161698016
154,299,118071296,12.3457835434718
155,301,118071296,12.346858957795162
156,303,118071296,12.347437409365188
157,305,118071296,12.358023081314208
158,307,118071296,12.358065765707586
159,309,118071296,12.35748502455038
160,311,118071296,12.346237957400248
161,313,118071296,12.347974591500082
162,315,118071296,12.347933268137965
163,317,118071296,12.346487124690832
164,319,118071296,12.345908762152986
165,321,118071296,12.34648583364268
166,323,118071296,12.347520049728367
167,325,118071296,12.346898982832489
168,327,118071296,12.347644012347299
169,329,118071296,12.346361894277319
170,331,118071296,12.346857666669246
171,333,118071296,12.347974591500082
172,334,118128640,10.744465508758982
173,335,118128640,12.357445501552466
174,337,118128640,12.348019767930236
175,339,118128640,12.346243962415482
176,341,118128640,12.346080087507364
177,343,118128640,12.345459466859799
178,345,118128640,12.342611347559524
179,347,118128640,12.347193748336773
180,349,118128640,12.347111152455602
181,351,118128640,12.347730648501123
182,353,118128640,12.346822075573497
183,355,118128640,12.34624525278635
184,357,118128640,12.346822075573497
185,359,118128640,12.3548386489489
186,361,118128640,12.346080087507364
187,363,118128640,12.347153740818834
188,365,118128640,12.346162669594468
189,367,118128640,12.3488471889663
190,369,118128640,12.347524142912244
191,371,118128640,12.345954926137669
192,373,118128640,12.357568310532644
193,375,118128640,12.339352070534316
194,377,118128640,12.345913636345584
195,379,118128640,12.346575596602118
196,381,118128640,12.346988551232021
197,383,118128640,12.358106113341865
198,385,118128640,12.347442833231927
199,387,118128640,12.347358943414307
200,389,118128640,12.347276345323001
201,391,118128640,12.3478971486618
202,393,118128640,12.347276345323001
203,395,118128640,12.34694725452595
204,397,118128640,12.346120088067844
205,398,118185984,10.878712455706792
206,399,118185984,12.358231710026862
207,401,118185984,12.347406972097506
208,403,118185984,12.347695936091947
209,405,118185984,12.345259516221526
210,407,118185984,12.34662141960362
211,409,118185984,12.347695936091947
212,411,118185984,12.347901057134935
213,413,118185984,12.34649888758642
214,415,118185984,12.346002335363458
215,417,118185984,12.345838546377754
216,419,118185984,12.34687036055988
217,421,118185984,12.357238049332347
218,423,118185984,12.34629123361598
219,425,118185984,12.346126147244702
220,427,118185984,12.348315190197576
221,428,118185984,12.288084322475076
222,431,118185984,12.34542457941713
223,432,118185984,12.248148310125073
224,435,118185984,12.3488506370443
225,437,118185984,12.348891926440357
226,439,118185984,12.346578855574593
227,441,118185984,12.346869070684493
228,443,118185984,12.346289943861594
229,445,118185984,12.347445671848089
230,447,118185984,12.346785229362466
231,449,118185984,12.346248671863501
232,451,118185984,12.347485661845212
233,453,118185984,12.34600104566943
234,455,118185984,12.34600104566943
235,457,118185984,12.346289943861594
236,459,118185984,12.346083586630426
237,461,118185984,12.346578855574593
238,462,118243328,10.789534446152212
239,463,118243328,12.3455121765985
240,465,118243328,12.34716227404854
241,467,118243328,12.3465846897679
242,469,118243328,12.346007159522024
243,471,118243328,12.347698650698929
244,473,118243328,12.347286049139438
245,475,118243328,12.3464196756128
246,477,118243328,12.346337170189322
247,479,118243328,12.347327308054535
248,481,118243328,12.348193808971175
249,483,118243328,12.357774680756892
250,485,118243328,12.34687476440416
251,487,118243328,12.346955987744863
252,489,118243328,12.346213414121628
253,491,118243328,12.346170873546358
254,493,118243328,12.3464196756128
255,495,118243328,12.35897333519939
256,497,118243328,12.346667198499564
257,499,118243328,12.345304656504489
258,501,118243328,12.346295917891089
259,503,118243328,12.346543435815601
260,505,118243328,12.347904961819586
261,507,118243328,12.345182210032371
262,509,118243328,12.34522345488853
263,511,118243328,12.347946224871034
264,513,118243328,12.34522345488853
265,515,118243328,12.347944935396502
266,517,118243328,12.34716227404854
267,519,118243328,12.34646221790266
268,521,118243328,12.346295917891089
269,523,118243328,12.347451086454265
270,525,118243328,12.34798748819826
271,526,118300672,10.953114824100272
272,527,118300672,12.34733277730642
273,528,118300672,10.225657455041073
274,529,118300672,12.343746018694983
275,530,118300672,11.96249198628821
276,531,118300672,12.347662698841383
277,532,118300672,10.278566868344383
278,533,118300672,12.355999064584116
279,534,118300672,11.912496913643649
280,535,118300672,12.348241392865367
281,536,118300672,10.356486266396729
282,537,118300672,12.346961636653004
283,538,118300672,11.952901189069472
284,539,118300672,12.346466817154248
285,540,118300672,10.824129932007832
286,541,118300672,12.347085347725034
287,542,118300672,11.937885405831306
288,543,118300672,12.346466817154248
289,544,118300672,11.010301786655628
290,545,118300672,12.347992638007865
291,546,118300672,11.968029861025963
292,547,118300672,12.346136959521703
293,548,118300672,11.077174885125293
294,549,118300672,12.34725029967744
295,550,118300672,11.983276991317087
296,551,118300672,12.346384351093693
297,552,118300672,11.088503564797735
298,553,118300672,12.347125296621561
299,554,118300672,11.562599980979973
300,555,118300672,12.358146881852504
301,556,118300672,11.100557436238075
302,557,118300672,12.34724901097323
303,558,118300672,11.605977819660218
304,559,118300672,12.347786423962544
305,560,118300672,11.204211168347289
306,561,118300672,12.342674518218487
307,562,118300672,11.629125219507094
308,563,118300672,12.347085347725034
309,564,118300672,11.107494680779645
310,565,118300672,12.346384351093693
311,566,118300672,11.68333502706163
312,567,118300672,12.347621457685317
313,568,118300672,11.161418958321914
314,569,118300672,12.34819757003883
315,570,118300672,11.68377811930166
316,571,118300672,12.345972037314889
317,572,118300672,11.119354738956536
318,573,118300672,12.35752724255202
319,574,118300672,11.673632354901669
320,575,118300672,12.347209061276148
321,576,118300672,11.056236766236408
322,577,118300672,12.347580216804742
323,578,118300672,11.685070663655893
324,579,118300672,12.348075125554578
325,580,118300672,11.083384049911109
326,581,118300672,12.347125296621561
327,582,118300672,11.696420391678563
328,583,118300672,12.347126585299947
329,584,118300672,11.101124097381923
330,585,118300672,12.346549284316454
331,586,118300672,11.687287119447841
332,587,118300672,12.347291538354195
333,588,118300672,11.10699410863217
334,589,118300672,12.34527116708901
335,590,117497856,11.555006324883339
336,591,117497856,12.348379468946938
337,592,117497856,9.535758814752535
338,593,117497856,12.34460158621044
339,594,117497856,11.756157437331034
340,595,117497856,12.355027510153652
341,596,117497856,9.786358317182078
342,597,117497856,12.353738893128956
343,598,117497856,11.717813545740448
344,599,117497856,12.346054344435142
345,600,117497856,9.908955362841363
346,601,117497856,12.346261909237663
347,602,117497856,11.70806158094399
348,603,117497856,12.347258317448865
349,604,117497856,10.228865776550485
350,605,117497856,12.347092238245013
351,606,117497856,11.68499812787997
352,607,117497856,12.345971320468282
353,608,117497856,10.396002553481773
354,609,117497856,12.348171832938272
355,610,117497856,11.696201790736101
356,611,117497856,12.34804725468475
357,612,117497856,10.422472289245116
358,613,117497856,12.346427966104812
359,614,117497856,11.68957377444521
360,615,117497856,12.344019281815005
361,616,117497856,10.42667403084293
362,617,117497856,12.345639235766821
363,618,117497856,11.707464287347667
364,619,117497856,12.347382879783792
365,620,117497856,10.478568617460967
366,621,117497856,12.346677059781179
367,622,117497856,11.712692673572064
368,623,117497856,12.34655251168662
369,624,117497856,10.174078278795093
370,625,117497856,12.347715058297517
371,626,117497856,11.665545198458373
372,627,117497856,12.35685567707445
373,628,117497856,10.19283159339246
374,629,117497856,12.346718576371101
375,630,117497856,11.777160431707461
376,631,117497856,12.346011535062788
377,632,117497856,10.225133349049868
378,633,117497856,12.346677059781179
379,634,117497856,11.705001095309237
380,635,117497856,12.34613736951865
381,636,117497856,10.272937790325077
382,637,117497856,12.34597002322766
383,638,117497856,11.709481564455146
384,639,117497856,12.357563961025951
385,640,117497856,10.263576601134062
386,641,117497856,12.346177585194908
387,642,117497856,11.707650935049848
388,643,117497856,12.347049421674669
389,644,117497856,10.51364391651567
390,645,117497856,12.34617888247915
391,646,117497856,11.76798832434009
392,647,117497856,12.34567944819795
393,648,117497856,10.615778424513843
394,649,117497856,12.357274139613033
395,650,117497856,11.759169417194922
396,651,117497856,12.346760093240231
397,652,117497856,10.611084640612713
398,653,117497856,12.347341358726236
399,654,117555200,10.406408258046971
400,655,117555200,12.346433907909864
401,656,117555200,10.257661405517549
402,657,117555200,12.34639241348534
403,658,117555200,11.706645923932175
404,659,117555200,12.34664138421626
405,660,117555200,10.334943743204668
406,661,117555200,12.346142156151258
407,662,117555200,11.795165911662279
408,663,117555200,12.357813897978275
409,664,117555200,10.450191770982466
410,665,117555200,12.356982532067605
411,666,117555200,11.681108999451693
412,667,117555200,12.346765873347216
413,668,117555200,10.625782549069871
414,669,117555200,12.34651689759566
415,670,117555200,11.685233321570752
416,671,117555200,12.34709655979207
417,672,117555200,10.802163204047282
418,673,117555200,12.34722235497277
419,674,117555200,11.752487858132602
420,675,117555200,12.346558392856936
421,676,117555200,10.83545846709609
422,677,117555200,12.35798018458463
423,678,117555200,11.773203351433853
424,679,117555200,12.34664138421626
425,680,117555200,10.792007419211329
426,681,117555200,12.34759456809699
427,682,117555200,11.720652231675986
428,683,117555200,12.356857836828787
429,684,117555200,10.820106633393818
430,685,117555200,12.353948995528079
431,686,117555200,11.77290151179201
432,687,117555200,12.346890364988603
433,688,117555200,10.694580211944377
434,689,117555200,12.357897040722069
435,690,117555200,11.778903479186882
436,691,117555200,12.358894840917939
437,692,117555200,10.69800605450327
438,693,117555200,12.346226438576329
439,694,117555200,11.749142565415493
440,695,117555200,12.346889068187734
441,696,117555200,10.6813024779253
442,697,117555200,12.345728540623002
443,698,117555200,11.768449996010617
444,699,117555200,12.357230631121183
445,700,117555200,10.65614279741878
446,701,117555200,12.35669158042505
447,702,117555200,11.875660115559054
448,703,117555200,12.357689185960226
449,704,117555200,10.76310765836084
450,705,117555200,12.357024097706468
451,706,117555200,11.861701204502221
452,707,117555200,12.346059171503175
453,708,117555200,10.971276685598399
454,709,117555200,12.346309425473022
455,710,117555200,11.878348058094728
456,711,117555200,12.34568705093959
457,712,117555200,10.967968324826343
458,713,117555200,12.358228323701246
459,714,117555200,11.857873607618885
460,715,117555200,12.347263854976116
461,716,117555200,10.9083026745177
462,717,117555200,12.355361690235409
463,718,117612544,10.618525816471676
464,719,117612544,12.35735724913379
465,720,117612544,10.253760837008222
466,721,117612544,12.357440345198118
467,722,117612544,11.868713734148985
468,723,117612544,12.347767166526422
469,724,117612544,10.345574290541705
470,725,117612544,12.346148234132745
471,726,117612544,11.894219884084176
472,727,117612544,12.345651881141267
473,728,117612544,10.441626038779933
474,729,117612544,12.356775607973095
475,730,117612544,11.804937390319138
476,731,117612544,12.347061990862679
477,732,117612544,10.735928168965486
478,733,117612544,12.346979034315167
479,734,117612544,11.855277419687802
480,735,117612544,12.346521497137402
481,736,117612544,10.960065909937436
482,737,117612544,12.345693350359335
483,738,117612544,11.814841796451988
484,739,117612544,12.358520695739928
485,740,117612544,11.012181581993334
486,741,117612544,12.358396030267695
487,742,117612544,11.829902139123117
488,743,117612544,12.357315701520703
489,744,117612544,10.861696314426608
490,745,117612544,12.355487883090891
491,746,117612544,11.741128930899546
492,747,117612544,12.356982032384868
493,748,117612544,10.97004331678955
494,749,117612544,12.347309570936861
495,750,117612544,11.880608177815148
496,751,117612544,12.345859230017561
497,752,117612544,10.781751668105608
498,753,117612544,12.345942171518283
499,754,117612544,11.883564802371932
500,755,117612544,12.345318841586776
501,756,117612544,10.829499430314907
502,757,117612544,12.346522793228823
503,758,117612544,11.914538512322583
504,759,117612544,12.355903248888271
505,760,117612544,10.762776551436101
506,761,117612544,12.347352347557695
507,762,117612544,11.873546087412485
508,763,117612544,12.348223499585758
509,764,117612544,10.815955069281863
510,765,117612544,12.35735724913379
511,766,117612544,11.896374612486078
512,767,117612544,12.346687399050877
513,768,117612544,10.681295332199626
514,769,117612544,12.356734064271068
515,770,117612544,11.88306652665812
516,771,117612544,12.357107967645902
517,772,117612544,11.000415090436029
518,773,117612544,12.347269387108495
519,774,117612544,11.887640224575621
520,775,117612544,12.347020512449582
521,776,117612544,11.07863541593861
522,777,117612544,12.347310867193745
523,778,117612544,11.944820004870854
524,779,117612544,12.356817151954465
525,780,117612544,11.035359488224106
526,781,117612544,12.347144948524932
527,782,117669888,10.903209301140404
528,783,117669888,12.346487228503195
529,784,117669888,10.263112366142007
530,785,117669888,12.346943244614405
531,786,117669888,12.01534968254307
532,787,117669888,12.357065881380876
533,788,117669888,10.369677824105175
534,789,117669888,12.347605305225496
535,790,117669888,11.910309122766993
536,791,117669888,12.348187096147944
537,792,117669888,10.365995485365495
538,793,117669888,12.346570138017935
539,794,117669888,11.924407675487176
540,795,117669888,12.346901787212325
541,796,117669888,10.808347796374465
542,797,117669888,12.347730988154163
543,798,117669888,11.961916604410492
544,799,117669888,12.347648063048092
545,800,117669888,10.991040056760784
546,801,117669888,12.346444478719754
