idx,og Index,data (B),bandwidth (GB/s)
0,0,16826368,11.599208078045121
1,1,16826368,12.090209702278091
2,2,16826368,11.45392662458953
3,3,16826368,11.8493546587945
4,4,16826368,12.16124243462373
5,6,16826368,11.840016212290942
6,8,16826368,11.836826173544365
7,9,16826368,11.744811065260242
8,10,16826368,11.374147599759896
9,11,16826368,11.19494249294593
10,12,16826368,11.313943293007643
11,14,16826368,11.444445729171273
12,16,16826368,11.155043492845774
13,17,16826368,10.668655028157888
14,18,16826368,11.225533828306327
15,19,16826368,12.064411910424454
16,20,16826368,11.187320693298194
17,22,16826368,12.205836418094071
18,24,16826368,11.249076079689798
19,25,16826368,11.803603997957248
20,26,16826368,11.236335856656712
21,27,16826368,11.218827696150171
22,28,16826368,11.231775631064332
23,30,16826368,11.65758245899913
24,32,16826368,11.106740797996526
25,33,16826368,11.874784665729935
26,34,16826368,11.184227300855515
27,35,16826368,11.521184931994588
28,36,16826368,11.081921175582634
29,38,16826368,11.436978028513654
30,40,16826368,12.021667964591654
31,41,16826368,12.076603581561226
32,42,16826368,12.031011387954809
33,43,16826368,12.19734239161558
34,44,16826368,11.360624071222114
35,46,16826368,12.28627130846731
36,47,16826368,11.923793137413998
37,48,16826368,12.142137693996823
38,49,16826368,12.028250687681213
39,50,16826368,11.534824798028442
40,51,16826368,11.915146974577658
41,52,16826368,11.263051359354835
42,54,16826368,11.426291303618564
43,56,16826368,11.181373379663317
44,57,16826368,12.114443202100002
45,58,16826368,11.440461742330754
46,59,16826368,10.93648902572742
47,60,16826368,11.271493979535444
48,61,16826368,12.297477559384863
49,62,16826368,10.919682449651864
50,64,16826368,11.080760819244516
51,65,16826368,12.116946936047885
52,66,16826368,10.993192941147262
53,67,16826368,10.254409342241502
54,68,16826368,11.46566508397704
55,70,16826368,11.772420702663673
56,72,16826368,11.293281295618295
57,73,16826368,12.059431500472662
58,74,16826368,11.078185550611835
59,75,16826368,11.932993445010926
60,76,16826368,11.270286037702991
61,78,16826368,11.328568427742738
62,80,16826368,11.896815447845986
63,81,16826368,11.795668660142013
64,82,16826368,11.03610102146962
65,83,16826368,11.61252850273019
66,84,16826368,11.213085956893272
67,86,16826368,11.18494100880298
68,88,16826368,11.195895948180357
69,89,16826368,10.526196995601564
70,90,16826368,10.62274730838627
71,91,16826368,11.641580552495974
72,92,16826368,10.96591100900989
73,94,16826368,11.171870819188428
74,96,16826368,11.149603252172588
75,97,16826368,11.166414156999297
76,98,16826368,11.618173281409673
77,99,16826368,12.130932769456038
78,100,16826368,12.093268352423452
79,102,16826368,11.825105275289964
80,104,16826368,11.302991606573675
81,105,16826368,11.595371324927918
82,106,16826368,11.928383061017314
83,107,16826368,11.129072859902813
84,108,16826368,12.007932798152535
85,110,16826368,12.235658901199907
86,112,16826368,11.699081670680766
87,113,16826368,12.23111400579486
88,114,16826368,11.292796218009421
89,115,16826368,12.304959757094613
90,116,16826368,11.516382733058606
91,118,16826368,12.153372115027642
92,120,16826368,11.727261069076839
93,121,16826368,12.245917328401887
94,122,16826368,12.09688511661312
95,123,16826368,11.708199039205535
96,124,16826368,11.74769742905177
97,125,16826368,11.972654048669417
98,126,16826368,11.525225348639689
99,128,16826368,11.353763272532941
100,129,16826368,11.007000079152377
101,130,16826368,11.793014897589584
102,131,16826368,11.686860660884253
103,132,16826368,12.095493797474997
104,133,16826368,12.15476800186081
105,134,16826368,11.80705783619662
106,135,16826368,11.876930417786912
107,136,16826368,11.512356389471206
108,137,16826368,12.141296606702317
109,138,16826368,11.923793137413998
110,139,16826368,11.20543944060601
111,140,16826368,11.568831529567392
112,142,16826368,12.311577209812462
113,144,16826368,11.83575210880832
114,145,16826368,11.54496303167694
115,146,16826368,11.495242415464746
116,147,16826368,11.625622516153637
117,148,16826368,12.288846578281804
118,150,16826368,11.754788158563915
119,152,16826368,11.900046323308404
120,153,16826368,11.680889466464516
121,154,16826368,12.283966146462616
122,155,16826368,11.825903123330804
123,156,16826368,11.993690370544607
124,158,16826368,12.016164980493619
125,160,16826368,11.294251575864687
126,161,16826368,11.970209584352704
127,162,16826368,11.3205199278775
128,163,16826368,11.96366470049543
129,164,16826368,11.031470406593824
130,166,16826368,11.270044480404442
131,168,16826368,11.414145470529817
132,169,16826368,11.729615481136548
133,170,16826368,11.338331901416755
134,171,16826368,11.908131194644076
135,172,16826368,11.150548999779327
136,174,16826368,12.231389627316416
137,176,16826368,11.89196401816054
138,177,16826368,12.133452074056715
139,178,16826368,11.873435585939044
140,179,16826368,12.077149665527834
141,180,16826368,11.14747590651589
142,182,16826368,11.262327648523467
143,184,16826368,11.3012986873425
144,185,16826368,10.88644212765572
145,186,16826368,11.277053848664524
146,187,16826368,11.667929636142746
147,188,16826368,11.166888437751567
148,190,16826368,11.211890500885884
149,192,16826368,11.41859930116389
150,193,16826368,11.715764202599052
151,194,16826368,11.692057968436442
152,195,16826368,12.01891155014568
153,196,16826368,10.87293560256044
154,197,16826368,12.128143510583243
155,198,16826368,12.19083830647703
156,200,16826368,11.425057714766833
157,201,16826368,10.764755632724244
158,202,16826368,11.513616781348704
159,203,16826368,11.30931226824516
160,204,16826368,11.566549166038836
161,206,16826368,11.423312525246354
162,208,16826368,11.307617455257061
163,209,16826368,11.298134364686884
164,210,16826368,11.478680383114579
165,211,16826368,11.745598114714275
166,212,16826368,11.788784575287952
167,214,16826368,11.29110635122585
168,216,16826368,11.887939579557939
169,217,16826368,11.334910099409015
170,218,16826368,11.823784076256329
171,219,16826368,11.912717500040708
172,220,16826368,11.612015613009369
173,222,16826368,11.823784076256329
174,224,16826368,11.274394096651056
175,225,16826368,11.70090400823343
176,226,16826368,11.724654333727957
177,227,16826368,11.666643323721125
178,228,16826368,11.435493429458427
179,230,16826368,12.023033759648905
180,232,16826368,11.181611150798265
181,233,16826368,11.971572228779667
182,234,16826368,11.90947131200915
183,235,16826368,12.139895053458092
184,236,16826368,12.131212640524977
185,238,16826368,11.871835522300655
186,240,16826368,12.000524913417815
187,241,16826368,10.418784361391278
188,242,16826368,11.480685359955896
189,243,16826368,12.001629093150035
190,244,16826368,11.625365486975122
191,246,16826368,12.236228362907571
192,248,16826368,11.285532620418413
193,249,16826368,12.109691571620214
194,250,16826368,11.548005600241579
195,251,16826368,11.583621093212171
196,252,16826368,11.627936290309206
197,254,16826368,12.311865478287148
198,256,16834560,11.47900654051135
199,257,16834560,12.311805820158833
200,258,16834560,11.639783031815778
201,259,16834560,12.30834920507262
202,260,16834560,12.219730062845969
203,262,16834560,11.99214417448652
204,264,16834560,11.948827727967021
205,265,16834560,12.131800850221131
206,266,16834560,11.214001514779088
207,267,16834560,12.029712415545067
208,268,16834560,11.167581788836637
209,270,16834560,11.31166310991179
210,272,16834560,11.120134277396968
211,273,16834560,11.923920072586592
212,274,16834560,11.89883849881998
213,275,16834560,11.431613600682315
214,276,16834560,11.143460831713789
215,278,16834560,12.236775251047622
216,280,16834560,10.993481449362054
217,281,16834560,12.076381252031016
218,282,16834560,11.151248263678438
219,283,16834560,11.562515453721256
220,284,16834560,11.066798932668584
221,286,16834560,11.483015470246379
222,288,16834560,11.087557439790718
223,289,16834560,11.791880305959486
224,290,16834560,11.149121325611198
225,291,16834560,10.731549348568048
226,292,16834560,11.094338279729616
227,294,16834560,11.574471830017545
228,296,16834560,11.275289692434743
229,297,16834560,10.628133755734039
230,298,16834560,11.790294656514211
231,299,16834560,10.755470994608388
232,300,16834560,12.10360989624487
233,302,16834560,12.227966930238843
234,304,16834560,11.793210267891856
235,305,16834560,11.200631270371742
236,306,16834560,11.569380989295551
237,307,16834560,11.240837993489691
238,308,16834560,11.272873616634604
239,310,16834560,11.458005499441889
240,312,16834560,11.454014010526945
241,313,16834560,11.629474632437514
242,314,16834560,11.562007219661215
243,315,16834560,11.099019555486988
244,316,16834560,12.293114653541984
245,318,16834560,11.676978652801438
246,320,16834560,11.334564558883036
247,321,16834560,11.795052884696227
248,322,16834560,12.055901888819264
249,323,16834560,12.138238939565348
250,324,16834560,11.207789933830036
251,326,16834560,11.49053976574658
252,328,16834560,11.08335281008358
253,329,16834560,11.110270751868534
254,330,16834560,11.258406407327552
255,331,16834560,10.933165342875885
256,332,16834560,11.329202177201832
257,334,16834560,11.733493919472743
258,336,16834560,12.029162281106041
259,337,16834560,11.912579829108214
260,338,16834560,11.14416162402515
261,339,16834560,11.47224781520714
262,340,16834560,10.948637936932636
263,342,16834560,11.369847470539607
264,343,16834560,12.28937246276409
265,344,16834560,11.249498821227528
266,345,16834560,11.843913750696512
267,346,16834560,11.19205293610424
268,347,16834560,10.339044778722691
269,348,16834560,10.74667568896067
270,350,16834560,11.774988668856421
271,352,16834560,11.26563159786098
272,353,16834560,11.622802414789202
273,354,16834560,11.804051135630585
274,355,16834560,11.49732006753102
275,356,16834560,11.968944629297841
276,358,16834560,12.267306754809953
277,360,16834560,11.300721157234833
278,361,16834560,11.82262024484384
279,362,16834560,11.965414180470313
280,363,16834560,11.898291859616982
281,364,16834560,12.020092321862716
282,366,16834560,12.020916298389292
283,368,16834560,11.842855585140995
284,369,16834560,12.224548347954522
285,370,16834560,11.288361988037444
286,371,16834560,11.981756791381736
287,372,16834560,11.306064198094676
288,374,16834560,11.43160583797864
289,376,16834560,11.418958883890538
290,377,16834560,11.791087427927852
291,378,16834560,11.967864005681596
292,379,16834560,12.032188643346887
293,380,16834560,11.950193330574342
294,382,16834560,11.423918177228384
295,384,16834560,11.303399635810859
296,385,16834560,11.973584167570547
297,386,16834560,11.881362535359182
298,387,16834560,11.985587017208863
299,388,16834560,11.973030639242127
300,390,16834560,11.816520819309549
301,392,16834560,11.331154320422591
302,393,16834560,11.872246074686737
303,394,16834560,11.944487015751383
304,395,16834560,11.632568449797953
305,396,16834560,11.236756333898246
306,398,16834560,11.953723289813116
307,400,16834560,11.907726325215686
308,401,16834560,11.847648002702474
309,402,16834560,11.34507519215023
310,403,16834560,11.76604287885936
311,404,16834560,12.279046155394715
312,405,16834560,11.919597434900728
313,406,16834560,11.25189736611162
314,408,16834560,12.000889664493831
315,409,16834560,11.591303437753039
316,410,16834560,12.143282212638145
317,411,16834560,12.011036029769027
318,412,16834560,12.314696824502754
319,414,16834560,12.281626104992228
320,416,16834560,12.031363120817769
321,417,16834560,11.326267602933132
322,418,16834560,11.111678755512257
323,419,16834560,12.033840028307248
324,420,16834560,12.308061241424891
325,422,16834560,12.305758017226319
326,424,16834560,11.701140812852616
327,425,16834560,11.398670718429562
328,426,16834560,12.163497282920876
329,427,16834560,11.578038085072434
330,428,16834560,12.074441035954587
331,430,16834560,12.018436127499415
332,432,16834560,11.793466381962775
333,433,16834560,11.93364902033062
334,434,16834560,11.834862965788021
335,435,16834560,11.705819199296867
336,436,16834560,11.152666673291531
337,438,16834560,11.752629139183808
338,440,16834560,11.560990885566891
339,441,16834560,11.955344714939068
340,442,16834560,11.431613600682315
341,443,16834560,12.010761809702037
342,444,16834560,11.432110435647115
343,446,16834560,11.404593525869492
344,448,16834560,11.405088014893733
345,449,16834560,11.476252024672371
346,450,16834560,12.231654037495886
347,451,16834560,12.10333143288928
348,452,16834560,12.110296862894332
349,454,16834560,12.011584507469353
350,456,16834560,11.829540543674176
351,457,16834560,11.91796881636999
352,458,16834560,11.867693088571187
353,459,16834560,11.568872151515984
354,460,16834560,11.393980085225273
355,462,16834560,11.580586755892599
356,464,16834560,11.302671085353342
357,465,16834560,11.828476633668792
358,466,16834560,11.506121266137013
359,467,16834560,11.802991805347558
360,468,16834560,12.042930754378597
361,470,16834560,11.590529322705708
362,472,16834560,12.107509729053676
363,473,16834560,12.220288895615607
364,474,16834560,12.139639428502614
365,475,16834560,12.077212964098855
366,476,16834560,11.8447137493738
367,478,16834560,11.633605447724115
368,480,16834560,10.79519061207477
369,481,16834560,10.081281143648987
370,482,16834560,11.842055837438476
371,483,16834560,11.830862385940057
372,484,16834560,11.14698781778188
373,486,16834560,12.178138963901562
374,488,16834560,11.179447607296614
375,489,16834560,11.403110316037317
376,490,16834560,12.021465678836027
377,491,16834560,11.09457224972963
378,492,16834560,11.733755624822264
379,494,16834560,12.132360412950652
380,496,16834560,11.875738505416706
381,497,16834560,12.153100583522896
382,498,16834560,11.952908498750716
383,499,16834560,12.06862412655217
384,500,16834560,11.445035539344826
385,502,16834560,11.956159838184577
386,504,16834560,11.186586642992701
387,505,16834560,10.35369541565623
388,506,16834560,11.144626408589167
389,507,16834560,12.308934172717104
390,508,16834560,12.118386812316663
391,510,16834560,12.20016769780768
392,512,16785408,9.73110003687119
393,513,16785408,12.165393142465359
394,514,16785408,10.806024187910165
395,515,16785408,12.035596104247167
396,516,16785408,11.724863230716789
397,517,16785408,12.269541794737785
398,518,16785408,11.72382319353791
399,519,16785408,12.261511186302505
400,520,16785408,11.98253312516999
401,521,16785408,11.557460216036972
402,522,16785408,11.691412714598552
403,523,16785408,11.907990397221324
404,524,16785408,11.685161980184786
405,525,16785408,12.226643017652993
406,526,16785408,11.642110052546013
407,527,16785408,12.268680869290012
408,528,16785408,11.462240398686433
409,529,16785408,11.615556232180918
410,530,16785408,11.399715166855582
411,531,16785408,11.871347006208879
412,532,16785408,11.557460216036972
413,533,16785408,12.300047923954796
414,534,16785408,11.597066155215202
415,535,16785408,12.26955076334706
416,536,16785408,11.320251123398865
417,537,16785408,11.741660371023253
418,538,16785408,11.648832160960254
419,539,16785408,11.858456495323141
420,540,16785408,11.568930818303624
421,541,16785408,12.275867919698687
422,542,16785408,11.766690804679083
423,543,16785408,11.920717967000618
424,544,16785408,11.29417084230195
425,545,16785408,11.674239262882038
426,546,16785408,11.626369363928031
427,547,16785408,11.756669129775483
428,548,16785408,11.370555954849456
429,549,16785408,12.262666730955523
430,550,16785408,11.590915870709704
431,551,16785408,12.285068131617198
432,552,16785408,11.841056463218488
433,553,16785408,11.990476428589288
434,554,16785408,11.865170826738787
435,555,16785408,11.54601233745866
436,556,16785408,11.731951859977649
437,557,16785408,12.016296235844417
438,558,16785408,12.080778390578589
439,559,16785408,12.253204845099457
440,560,16785408,12.1181769680098
441,561,16785408,11.94214974814309
442,562,16785408,11.504987086762698
443,563,16785408,11.768794556968416
444,564,16785408,11.493391032839419
445,565,16785408,11.787315232970254
446,566,16785408,11.823707418782227
447,567,16785408,12.158352443852738
448,568,16785408,11.611442232663158
449,569,16785408,10.625861648756864
450,570,16785408,11.396742993906269
451,571,16785408,11.575568661418192
452,572,16785408,11.421317641679414
453,573,16785408,12.193965423302293
454,574,16785408,11.669572459783188
455,575,16785408,12.264664814163973
456,576,16785408,11.501203194632492
457,577,16785408,11.684381108308134
458,578,16785408,12.015745720501291
459,579,16785408,12.082169713468431
460,580,16785408,11.520400599581611
461,581,16785408,12.185184163493103
462,582,16785408,11.723290962424919
463,583,16785408,12.264951588047936
464,584,16785408,11.742982890011817
465,585,16785408,11.399715166855582
466,586,16785408,11.484332152885347
467,587,16785408,10.465592512092655
468,588,16785408,11.046796210813948
469,589,16785408,11.393029956458438
470,590,16785408,11.373275586368392
471,591,16785408,12.136963222677673
472,592,16785408,11.129298284465508
473,593,16785408,10.339140193731744
474,594,16785408,10.883826967892032
475,595,16785408,10.577443150381939
476,596,16785408,11.527489492624234
477,597,16785408,12.100286117773255
478,598,16785408,11.774879044732229
479,599,16785408,11.376968045628768
480,600,16785408,11.275726976176784
481,601,16785408,11.851758126924054
482,602,16785408,11.476040715196001
483,603,16785408,11.638751906809041
484,604,16785408,11.487098628562043
485,605,16785408,11.627915740704822
486,606,16785408,11.660752258282336
487,607,16785408,12.129946617969805
488,608,16785408,11.577612607392938
489,609,16785408,10.931010297757782
490,610,16785408,12.107827374061099
491,611,16785408,11.647280216272629
492,612,16785408,12.02952375423818
493,613,16785408,11.843203605721571
494,614,16785408,11.934278809544631
495,615,16785408,12.280457317943078
496,616,16785408,11.602966305556016
497,617,16785408,11.664633773453787
498,618,16785408,12.032274528469598
499,619,16785408,11.424294872362045
500,620,16785408,11.911514183830965
501,621,16785408,12.170765061000987
502,622,16785408,12.184043174815175
503,623,16785408,11.993483591798471
504,624,16785408,11.852302086900647
505,625,16785408,11.82637319279655
506,626,16785408,11.602709652445599
507,627,16785408,11.603479645841514
508,628,16785408,11.540169952974177
509,629,16785408,11.951417972616005
510,630,16785408,12.162854378992142
511,631,16785408,11.734838935647666
512,632,16785408,11.450738123175158
513,633,16785408,10.806024187910165
514,634,16785408,11.943254377663775
515,635,16785408,11.220485026013378
516,636,16785408,11.999528180155114
517,637,16785408,12.226928016211849
518,638,16785408,11.70393426711515
519,639,16785408,12.163145225221047
520,640,16785408,11.371549663705688
521,641,16785408,11.383889187297557
522,642,16785408,11.915572923876354
523,643,16785408,10.418607422635109
524,644,16785408,11.329794644448164
525,645,16785408,12.146800117810605
526,646,16785408,11.867318334048583
527,647,16785408,10.649382750512947
528,648,16785408,11.322939103158676
529,649,16785408,10.387864842836693
530,650,16785408,11.503977805435694
531,651,16785408,11.113036397040569
532,652,16785408,11.482069663720688
533,653,16785408,12.166521822012859
534,654,16785408,12.24834084074771
535,655,16785408,12.208155446006863
536,656,16785408,12.026214145235306
537,657,16785408,11.354810778047764
538,658,16785408,11.5768460430702
539,659,16785408,10.5941063234895
540,660,16785408,11.678406014598174
541,661,16785408,11.676058297486351
542,662,16785408,11.685942956440375
543,663,16785408,11.529009676302675
544,664,16785408,12.06466243125969
545,665,16785408,11.773293334801599
546,666,16785408,12.081891423253243
547,667,16785408,10.30825002287596
548,668,16785408,11.843730066890576
549,669,16785408,11.371796192014395
550,670,16785408,11.863024096513268
551,671,16785408,11.972140575262172
552,672,16785408,11.502716452767713
553,673,16785408,11.50549179383976
554,674,16785408,11.496413836181626
555,675,16785408,11.564084899056983
556,676,16785408,11.421815034376888
557,677,16785408,12.175558803581856
558,678,16785408,11.863552321340729
559,679,16785408,11.958493601274972
560,680,16785408,11.54474175071392
561,681,16785408,11.837323793182968
