idx,og Index,data (B),bandwidth (GB/s)
0,0,58777600,9.837732710039482
1,1,58777600,12.350383638162269
2,3,58777600,12.349135535720777
3,5,58777600,12.35004888322886
4,7,58777600,12.348307931223125
5,9,58777600,12.346979844906526
6,11,58777600,12.350632769890625
7,13,58777600,12.34689684899704
8,15,58777600,12.338602889005138
9,17,58777600,12.331559191907917
10,19,58777600,12.351629397321785
11,21,58777600,12.350632769890625
12,23,58777600,12.350632769890625
13,25,58777600,12.349055105338925
14,27,58777600,12.351463281580312
15,29,58777600,12.347890279536307
16,31,58777600,12.351211520927416
17,33,58777600,12.35104801177411
18,35,58777600,12.349802369880548
19,37,58777600,12.348305337026071
20,39,58777600,12.349470241141761
21,41,58777600,12.351297170306925
22,43,58777600,12.348556979215425
23,45,58777600,12.349885404856614
24,47,58777600,12.349885404856614
25,49,58777600,12.350796268049699
26,51,58777600,12.349304183471343
27,53,58777600,12.35004888322886
28,55,58777600,12.349055105338925
29,57,58777600,12.35071581603364
30,59,58777600,12.350464085850787
31,61,58777600,12.350547129725333
32,63,58777600,12.352125175554235
33,64,58834944,11.189681785573276
34,65,58834944,12.350308700284897
35,67,58834944,12.353046996843025
36,69,58834944,12.352217081787774
37,71,58834944,12.353129994482186
38,73,58834944,12.351719186278421
39,75,58834944,12.34972541329691
40,77,58834944,12.352961406695737
41,79,58834944,12.348149517795225
42,81,58834944,12.35155323002819
43,83,58834944,12.350057232027012
44,85,58834944,12.349227718632543
45,87,58834944,12.345084412886656
46,89,58834944,12.345744978864174
47,91,58834944,12.35263202537588
48,93,58834944,12.350806482085593
49,95,58834944,12.352715017438896
50,97,58834944,12.35179957294035
51,99,58834944,12.35163620759586
52,101,58834944,12.351716593177715
53,103,58834944,12.350806482085593
54,105,58834944,12.35147025357539
55,107,58834944,12.350474623093426
56,109,58834944,12.350889449620247
57,111,58834944,12.331422678856626
58,113,58834944,12.350640550360264
59,115,58834944,12.348481251845662
60,117,58834944,12.35022574055244
61,119,58834944,12.351965535810447
62,121,58834944,12.351885146988307
63,123,58834944,12.3513017110878
64,125,58834944,12.35155323002819
65,127,58834944,12.348895944474727
66,128,58892288,11.180514727938089
67,129,58892288,12.349071129689566
68,131,58892288,12.347913747019549
69,133,58892288,12.350231319296963
70,135,58892288,12.351394317362924
71,137,58892288,12.350233909249754
72,139,58892288,12.351806211066528
73,141,58892288,12.347662621037092
74,143,58892288,12.351725902591056
75,145,58892288,12.351725902591056
76,147,58892288,12.351972012512991
77,149,58892288,12.351477212000916
78,151,58892288,12.350316788312595
79,153,58892288,12.352054914905429
80,155,58892288,12.33938636095064
81,157,58892288,12.349319723397729
82,159,58892288,12.351808801679898
83,161,58892288,12.348990856775725
84,163,58892288,12.348825135351621
85,165,58892288,12.352886591104925
86,167,58892288,12.35073120031273
87,169,58892288,12.352306219581871
88,171,58892288,12.35197460319591
89,173,58892288,12.353052421557285
90,175,58892288,12.352303628759845
91,177,58892288,12.351062749937293
92,179,58892288,12.351143049789593
93,181,58892288,12.352472034452179
94,183,58892288,12.351808801679898
95,185,58892288,12.351391726923415
96,187,58892288,12.352969505774563
97,189,58892288,12.351143049789593
98,190,58892288,12.319972118490558
99,192,58949632,10.80369985503342
100,193,58949632,12.351484156896467
101,195,58949632,12.349908291669154
102,197,58949632,12.350984701235253
103,199,58949632,12.351398754879042
104,201,58949632,12.351150319361466
105,203,58949632,12.350653478307235
106,205,58949632,12.351730017782831
107,207,58949632,12.33510601456828
108,209,58949632,12.349411550532244
109,211,58949632,12.352309770622776
110,213,58949632,12.350073880928623
111,215,58949632,12.351481568939192
112,217,58949632,12.352146709635782
113,219,58949632,12.349910878967185
114,221,58949632,12.353306347983601
115,223,58949632,12.34858373743165
116,225,58949632,12.350984701235253
117,227,58949632,12.351070097526922
118,229,58949632,12.350407660275561
119,231,58949632,12.349163194948522
120,233,58949632,12.350239474628637
121,235,58949632,12.344777226162547
122,237,58949632,12.342957550220657
123,238,58949632,11.399579711599468
124,241,58949632,12.353386598870355
125,243,58949632,12.352726501593816
126,245,58949632,12.351235717943368
127,246,58949632,12.268891661576276
128,248,58949632,12.342461368064127
129,250,58949632,12.302074044548602
130,252,58949632,12.272896798554807
131,255,58949632,12.32701957363093
132,256,59006976,11.111426713645498
133,257,59006976,12.351240305160973
134,259,59006976,12.350911975619251
135,261,59006976,12.35173929607596
136,263,59006976,12.349089676230498
137,265,59006976,12.351323036617762
138,267,59006976,12.35099470267763
139,269,59006976,12.351488502856311
140,271,59006976,12.35289773093629
141,273,59006976,12.350911975619251
142,275,59006976,12.35082924966908
143,277,59006976,12.352566727375494
144,279,59006976,12.351323036617762
145,281,59006976,12.348180020202582
146,283,59006976,12.350661215994434
147,285,59006976,12.351323036617762
148,287,59006976,12.351325621993645
149,289,59006976,12.349671202715768
150,291,59006976,12.351408354593385
151,293,59006976,12.350247614120065
152,294,59006976,11.310304059784949
153,297,59006976,12.35074652482709
154,299,59006976,12.351240305160973
155,301,59006976,12.351240305160973
156,302,59006976,12.26489795875948
157,304,59006976,12.347931955453092
158,306,59006976,12.319553141208607
159,308,59006976,12.3333962471195
160,311,59006976,12.353725317453206
161,313,59006976,12.329108152985725
162,315,59006976,12.350578493403374
163,317,59006976,12.351157574812477
164,319,59006976,12.349337787498882
165,320,59064320,11.174411749793215
166,321,59064320,12.346045248520715
167,323,59064320,12.35207661157087
168,325,59064320,12.350340958229376
169,326,59064320,11.283231375863254
170,329,59064320,12.350586296284911
171,331,59064320,12.349677303074586
172,333,59064320,12.350586296284911
173,335,59064320,12.352735357714781
174,337,59064320,12.352652687676631
175,339,59064320,12.349512045957065
176,341,59064320,12.350338375775369
177,343,59064320,12.350586296284911
178,345,59064320,12.351908707124121
179,346,59064320,11.35395747594573
180,349,59064320,12.351578077866131
181,351,59064320,12.34810753900732
182,353,59064320,12.349594673962974
183,355,59064320,12.353316662664925
184,357,59064320,12.35075416478122
185,358,59064320,12.284497810644968
186,360,59064320,12.329466166482378
187,362,59064320,12.332019837524054
188,364,59064320,12.330866435752972
189,367,59064320,12.351415352777966
190,370,59465728,12.351540927518435
191,372,59465728,12.351133023179303
192,374,59465728,12.35072001541926
193,376,59465728,12.350555846093583
194,378,59465728,12.35220030156739
195,380,59465728,12.351133023179303
196,382,59465728,12.351294642430608
197,384,59465728,12.352690387807204
198,386,59465728,12.352361948751568
199,388,59465728,12.352279841716607
200,390,59465728,12.351869322914395
201,392,59465728,12.351707688623213
202,393,59523072,11.16561797436655
203,394,59523072,12.35138371104234
204,396,59523072,12.349254238561088
205,398,59523072,12.350973647221112
206,400,59523072,12.351714344825382
207,402,59523072,12.350153601257526
208,404,59523072,12.351386274026844
209,406,59523072,12.351140232364584
210,408,59523072,12.352778131730433
211,410,59523072,12.351550307247633
212,412,59523072,12.352696098268595
213,414,59523072,12.351055657807095
214,416,59523072,12.349169689830262
215,418,59523072,12.353026802318812
216,420,59523072,12.352206483702133
217,422,59523072,12.350563610627079
218,424,59523072,12.350153601257526
219,426,59523072,12.351301696099789
220,428,59523072,12.351878386760266
221,430,59523072,12.351058220655457
222,432,59523072,12.321357200314807
223,434,59523072,12.351547744195052
224,436,59523072,12.205096554104111
225,438,59523072,12.352370538709463
226,440,59523072,12.352203920377221
227,442,59523072,12.351711781704722
228,444,59523072,12.351058220655457
229,446,59523072,12.34908770428781
230,448,59523072,12.349500205088221
231,450,59523072,12.348352445115216
232,452,59523072,12.351547744195052
233,454,59523072,12.35073018470983
234,456,59523072,12.352206483702133
235,457,59580416,11.27245957561132
236,458,59580416,12.351718427565492
237,459,59580416,11.282432458789962
238,460,59580416,12.35155454775756
239,461,59580416,11.294480188353763
240,462,59580416,12.351390672298209
241,463,59580416,11.32091980406091
242,464,59580416,12.350653286540204
243,465,59580416,11.784453214484847
244,466,59580416,12.341727154448035
245,467,59580416,11.63983272204125
246,468,59580416,12.351882311722182
247,469,59580416,11.78624358343615
248,470,59580416,12.350735213943175
249,471,59580416,11.680725917346209
250,472,59580416,12.349178779127007
251,473,59580416,11.504971453078563
252,474,59580416,12.349342595897427
253,475,59580416,11.616808652141792
254,476,59580416,12.354177146632152
255,477,59580416,11.77640560836036
256,478,59580416,12.344511827484684
257,479,59580416,11.682484904836844
258,480,59580416,12.352130706937897
259,481,59580416,11.72131941238001
260,482,59580416,12.34967024247718
261,483,59580416,11.73653995901498
262,484,59580416,12.35139323281882
263,485,59580416,11.721835967449016
264,486,59580416,12.345821492851782
265,487,59580416,11.737721479486318
266,488,59580416,12.352619844247778
267,489,59580416,11.755730335925838
268,490,59580416,12.348769256214654
269,491,59580416,11.697310736752662
270,492,59580416,12.351718427565492
271,493,59580416,11.73417300950288
272,494,59580416,12.35212814611151
273,495,59580416,11.731287270401724
274,496,59580416,12.352950225919741
275,497,59580416,11.702751404104301
276,498,59580416,12.350325587797185
277,499,59580416,11.599656179090587
278,500,59580416,12.3520462002278
279,501,59580416,11.677575722415105
280,502,59580416,12.348771815648508
281,503,59580416,11.758776637893588
282,504,59580416,12.348362319726672
283,505,59580416,11.666453755698567
284,506,59580416,12.327511428421275
285,507,59580416,11.641069908063935
286,508,59580416,12.35073777419203
287,509,59580416,11.689012444257846
288,510,59580416,12.350653286540204
289,511,59580416,11.730254848737275
290,512,59580416,12.350079825151617
291,513,59580416,11.688645535176535
292,514,59580416,12.3520462002278
293,515,59580416,11.783334510076381
294,516,59580416,12.352865707995885
295,517,59580416,11.66331125319623
296,518,59580416,12.3520462002278
297,519,59580416,11.713721630598434
298,520,59580416,12.351636487117943
299,521,59064320,12.317453405747822
300,522,59064320,11.516399627664947
301,523,59064320,12.32230505801345
302,524,59064320,11.617154445911508
303,525,59064320,12.350751582154407
304,526,59064320,11.704821474893844
305,527,59064320,12.35174339028257
306,528,59064320,11.720506409493193
307,529,59064320,12.352074028390962
308,530,59064320,11.760232256558997
309,531,59064320,12.349677303074586
310,532,59064320,11.657214540018762
311,533,59064320,12.350255737817351
312,534,59064320,11.716858405596225
313,535,59064320,12.35083422674816
314,536,59121664,11.20194596122667
315,537,59121664,12.351172043516183
316,538,59121664,11.284597282725604
317,539,59121664,12.350676646367589
318,540,59121664,11.22685741153022
319,541,59121664,12.350098733252269
320,542,59121664,11.29356462585294
321,543,59121664,12.3452298994222
322,544,59121664,11.270966658361107
323,545,59121664,12.35059408403975
324,546,59121664,11.251815664971772
325,547,59121664,12.351752637626658
326,548,59121664,11.500385345435632
327,549,59121664,12.350514102837279
328,550,59121664,11.31244251376369
329,551,59121664,12.350263845766426
330,552,59121664,11.493660196156576
331,553,59121664,12.35208037484751
332,554,59121664,11.277709010868605
333,555,59121664,12.348530384529347
334,556,59121664,11.491946630818193
335,557,59121664,12.34993362515288
336,558,59121664,11.371976061817799
337,559,59121664,12.350759209799275
338,560,59121664,11.636638476036914
339,561,59121664,12.350676646367589
340,562,59121664,11.291836873456297
341,563,59121664,12.350926920168295
342,564,59121664,11.654105936231836
343,565,59121664,12.350263845766426
344,566,59121664,11.299712029821837
345,567,59121664,12.350098733252269
346,568,59121664,11.688907455996318
347,569,59121664,12.352578465498581
348,570,59121664,12.33583576273464
349,571,59121664,12.320042010327539
350,572,59121664,12.326779738196743
351,573,59121664,12.327684485215848
352,574,59121664,11.41935011588035
353,575,59121664,12.350924339974275
354,576,59121664,11.494949616712937
355,577,59121664,12.35084177433483
356,578,59121664,11.715964811876072
357,579,59121664,12.348035199264151
358,580,59121664,11.670890928605255
359,581,59121664,12.352410710274965
360,582,59121664,11.7155910272037
361,583,59121664,12.350263845766426
362,584,59121664,11.718565713298057
363,585,59121664,12.349685971281104
364,586,59121664,11.724589373283601
365,587,59121664,12.35141975699391
366,588,59121664,11.690315028513126
367,589,59121664,12.347787621524228
368,590,59121664,11.653223852878641
369,591,59121664,12.35059408403975
370,592,59121664,11.665437870762347
371,593,59121664,12.349603422197704
372,594,59121664,11.677529900607503
373,595,59121664,12.35323662614855
374,596,59121664,11.649843769981965
375,597,59121664,12.349851072758671
376,598,59121664,11.695865414289445
377,599,59121664,12.349851072758671
378,600,59179008,11.133827158264042
379,601,59179008,12.353076808911732
380,602,59179008,11.223901431327462
381,603,59179008,12.3510142798735
382,604,59179008,11.21056591764131
383,605,59179008,12.352169211274267
384,606,59179008,11.229626368621796
385,607,59179008,12.351096767811141
386,608,59179008,11.293542172583408
387,609,59179008,12.352004207850271
388,610,59179008,11.238090282610996
389,611,59179008,12.349612153490849
390,612,59179008,11.529122334259757
391,613,59179008,12.351426730580146
392,614,59179008,11.497300381624294
393,615,59179008,12.336266667945202
394,616,59179008,11.529769240990245
395,617,59179008,12.349529685382215
396,618,59179008,11.39240246078478
397,619,59179008,12.352169211274267
398,620,59179008,11.572121552723942
399,621,59179008,12.351261746991913
400,622,59179008,11.474470523223687
401,623,59179008,12.350439472649516
402,624,59179008,11.832147832749246
403,625,59179008,12.352251714639417
404,626,59179008,11.491227937317195
405,627,59179008,12.349119938299273
406,628,59179008,12.287089183795969
407,629,59179008,12.315646273226713
408,630,59179008,12.299019574223998
409,631,59179008,12.19182734204232
410,632,59179008,12.323524812077673
411,633,59179008,12.342361747797817
412,634,59179008,11.315239481555258
413,635,59179008,12.351344238235084
414,636,59179008,11.644329236630393
415,637,59179008,12.34887255699816
416,638,59179008,11.79171003782656
417,639,59179008,12.350931793037656
418,640,59179008,11.698098602115063
419,641,59179008,12.353159324401531
420,642,59179008,11.74288950962197
421,643,59179008,12.349859564425381
422,644,59179008,11.76964676943834
423,645,59179008,12.352994294524283
424,646,59179008,11.81800840654311
425,647,59179008,12.351261746991913
426,648,59179008,11.84912950086257
427,649,59179008,12.351756710979702
428,650,59179008,11.880722612196715
429,651,59179008,12.351841786910251
430,652,59179008,11.84048095807463
431,653,59179008,12.350519375384655
432,654,59179008,11.921774283064893
433,655,59179008,12.351016857604872
434,656,59179008,11.868446950181168
435,657,59179008,12.353409456215426
436,658,59179008,11.89294721135054
437,659,59179008,12.351099345576946
438,660,59179008,11.902666016614937
439,661,59179008,12.35018946109239
440,662,59179008,11.899449374816015
441,663,59179008,12.350271938013034
442,664,59236352,11.41209085693435
443,665,59236352,12.336945992963509
444,666,59236352,11.440090135848815
445,667,59236352,12.282592499899954
446,668,59236352,11.467161516902328
447,669,59236352,12.351104046945427
448,670,59236352,11.393196819402094
449,671,59236352,12.350692017029326
450,672,59236352,11.4701457712173
451,673,59236352,12.35184577007679
452,674,59236352,11.46701722849284
453,675,59236352,12.352670011379587
454,676,59236352,11.6531911624656
455,677,59236352,12.347726212956363
456,678,59236352,11.486016794195676
457,679,59236352,12.351928189257206
458,680,59236352,11.711730542432429
459,681,59236352,12.352670011379587
460,682,59236352,11.49986187279523
461,683,59236352,12.352340301658389
462,684,59236352,11.685706163721617
463,685,59236352,12.351021638762912
464,686,59236352,11.526568976675746
465,687,59236352,12.350527212760106
466,688,59236352,11.816924537786964
467,689,59236352,12.35308217328371
468,690,59236352,11.504076197253067
469,691,59236352,12.353659246159317
470,692,59236352,11.923487718192229
471,693,59236352,12.35011522132857
472,694,59236352,11.951740564272304
473,695,59236352,12.35069459213093
474,696,59236352,11.924409404437306
475,697,59236352,12.350444812274812
476,698,59236352,12.006159920386393
477,699,59236352,12.331111140254627
478,700,59236352,11.869204690267615
479,701,59236352,12.35085682569687
480,702,59236352,11.925405657870366
481,703,59236352,12.349208936924887
482,704,59236352,11.863502043495911
483,705,59236352,12.35085682569687
484,706,59236352,11.810742136719554
485,707,59236352,12.351928189257206
486,708,59236352,11.841567501091474
487,709,59236352,12.349703257382707
488,710,59236352,11.803964016815108
489,711,59236352,12.351104046945427
490,712,59236352,11.836116044239908
491,713,59236352,12.35126886660955
492,714,59236352,11.932557159038511
493,715,59236352,12.349785647973157
494,716,59236352,11.864870749269466
495,717,59236352,12.351351278091203
496,718,59236352,11.937479545428896
497,719,59236352,12.194958420536224
498,720,59236352,10.573296071057497
499,721,59236352,10.783768664086583
500,722,59236352,10.084108413905623
501,723,59236352,10.524665194117764
502,724,59236352,9.8869790614803
503,725,59236352,10.578190121640606
504,726,59236352,9.925625609288973
505,727,59236352,10.412830156175703
506,728,59293696,9.64369758833135
507,729,59293696,10.623823797064468
508,730,59293696,9.610834263722099
509,731,59293696,10.674071023062766
510,732,59293696,9.855333257873014
511,733,59293696,12.352181683454296
512,734,59293696,11.497706613260961
513,735,59293696,12.339678156135376
514,736,59293696,11.497278558844208
515,737,59293696,12.34938264225325
516,738,59293696,11.460230319068952
517,739,59293696,12.35086690223989
518,740,59293696,11.698571714936461
519,741,59293696,12.348065885289058
520,742,59293696,11.575423758262275
521,743,59293696,12.350946655943321
522,744,59293696,11.667263078710057
523,745,59293696,12.351026410676754
524,746,59293696,11.463846376633384
525,747,59293696,12.351522971379957
526,748,59293696,11.691190411968003
527,749,59293696,12.350205757973967
528,750,59293696,11.54153623473893
529,751,59293696,12.352675763619231
530,752,59293696,11.850983916125287
531,753,59293696,12.350452714087032
532,754,59293696,11.479826851091396
533,755,59293696,12.352922818524188
534,756,59293696,11.923126467550064
535,757,59293696,12.346749409094212
536,758,59293696,11.768563757067843
537,759,59293696,12.349958811736833
538,760,59293696,11.840230551601737
539,761,59293696,12.352511065839217
540,762,59293696,11.956054308438102
541,763,59293696,12.350946655943321
542,764,59293696,11.852651678098129
543,765,59293696,12.351111312008703
544,766,59293696,11.935030300688059
545,767,59293696,12.351440637310441
546,768,59293696,11.870498115433149
