idx,og Index,data (B),bandwidth (GB/s)
0,1,67321856,12.35444535813599
1,3,67321856,12.096720786559857
2,5,67321856,12.353214389519948
3,7,67321856,12.355173173202566
4,9,67321856,12.353359463307937
5,11,67321856,12.3544476253395
6,13,67321856,12.353069319139317
7,15,67321856,12.354302525992502
8,17,67321856,12.308618958736364
9,19,67321856,12.355753672853917
10,21,67321856,12.352631861902411
11,23,67321856,12.353867248400574
12,24,67338240,11.575958165931102
13,25,67338240,12.352086592334535
14,27,67338240,12.353609388254702
15,29,67338240,12.354624794145362
16,31,67338240,12.30168225425907
17,32,67338240,12.333334004901593
18,35,67338240,12.355712914277662
19,37,67338240,12.353754436020042
20,39,67338240,12.354044541769284
21,41,67338240,12.352594149259339
22,43,67338240,12.353536865649298
23,45,67338240,12.354189599753424
24,47,67338240,12.354044541769284
25,49,67338240,12.354262130022926
26,51,67338240,12.354842402839303
27,53,67338240,12.351941583731257
28,55,67338240,12.35440719311687
29,57,67338240,12.355422730168423
30,59,67338240,12.354262130022926
31,61,67338240,12.354767598986127
32,63,67338240,12.353244517531188
33,65,67338240,12.350781637462253
34,67,67338240,12.356798958581255
35,69,67338240,12.356073396333706
36,71,67338240,12.353752169622515
37,73,67338240,12.355060019199097
38,75,67338240,12.354189599753424
39,77,67338240,12.355565553456282
40,79,67338240,12.354114803804961
41,81,67338240,12.354695062781435
42,83,67338240,12.353972014054616
43,85,67338240,12.354914940774119
44,87,67338240,12.356798958581255
45,88,67354624,11.536759398601845
46,89,67354624,12.354001954127705
47,90,67354624,11.172455708027957
48,91,67354624,12.353714186776068
49,92,67354624,11.529428922484078
50,93,67354624,12.349507969607078
51,94,67354624,11.252551739807409
52,95,67354624,12.355017177522713
53,96,67354624,11.642564783788993
54,97,67354624,12.354656844762058
55,98,67354624,11.19819138764413
56,99,67354624,12.353641680581518
57,100,67354624,11.156464847622429
58,101,67354624,12.354076730515832
59,102,67354624,11.214063184701837
60,103,67354624,12.353424167104402
61,104,67354624,11.733102182991079
62,105,67354624,12.352119247076773
63,106,67354624,11.798608858211303
64,107,67354624,12.354946922316106
65,108,67354624,11.796625083280032
66,109,67354624,12.3542194879523
67,110,67354624,11.639989389067802
68,111,67354624,12.355889768447994
69,112,67354624,11.708168681312664
70,113,67354624,12.354946922316106
71,114,67354624,11.679064351821749
72,115,67354624,12.355017177522713
73,116,67354624,11.739971641243427
74,117,67354624,12.352844168610707
75,118,67354624,11.668575608131858
76,119,67354624,12.355962301034051
77,120,67354624,11.76142517383363
78,121,67354624,12.35269691203778
79,122,67354624,11.694443012038633
80,123,67354624,12.355234747101948
81,124,67354624,11.674918398182895
82,125,67354624,12.354294266973836
83,126,67354624,11.695935581090941
84,127,67354624,12.356107368760915
85,128,67354624,11.719709545156848
86,129,67354624,12.354076730515832
87,130,67354624,11.647847907361783
88,131,67354624,12.354221753969954
89,132,67354624,11.71233828823103
90,133,67354624,12.353714186776068
91,134,67354624,11.73009229999737
92,135,67354624,12.353641680581518
93,136,67354624,11.731072947634239
94,137,67354624,12.354366780828952
95,138,67354624,11.642884775678533
96,139,67354624,12.354582061351191
97,140,67354624,11.691586870771964
98,141,67354624,12.35197427297988
99,142,67354624,12.181126247304196
100,143,67354624,12.35516222305746
101,144,67354624,12.219738448422909
102,145,67354624,12.353279162374953
103,146,67354624,12.204151010881876
104,147,67354624,12.355889768447994
105,148,67354624,12.248680424860915
106,149,67354624,12.353279162374953
107,150,67354624,12.165142711620119
108,151,67354624,12.356105102051487
109,152,67125248,11.97019668320227
110,153,67125248,12.344755139812916
111,154,67125248,10.123077772246447
112,155,67125248,12.349551830210618
113,156,67125248,12.280937786325461
114,157,67125248,12.349261015592115
115,158,67125248,10.409161579054286
116,159,67125248,12.35369742727495
117,160,67125248,10.7901838222588
118,161,67125248,12.351590188908249
119,162,67125248,10.646912414737779
120,163,67125248,12.35253346995139
121,164,67125248,10.784911815496026
122,165,67125248,12.351806107998458
123,166,67125248,10.864455952947248
124,167,67125248,12.352678952621831
125,168,67125248,12.249166375455408
126,169,67125248,12.35457053922969
127,170,67125248,12.172611987163178
128,171,67125248,12.354061208924854
129,172,67125248,12.168516425397073
130,173,67125248,12.356317133440736
131,174,67125248,12.212726441760475
132,175,67125248,12.353842937363993
133,176,67125248,12.230742095826713
134,177,67125248,12.354136241555278
135,178,67125248,12.186260194438438
136,179,67125248,12.35216977826718
137,180,67125248,12.178831210278332
138,181,67125248,12.336043424182636
139,182,67125248,12.244592516059738
140,183,67125248,12.35638991891661
141,184,67125248,12.197174663259284
142,185,67125248,12.3523152523709
143,186,67125248,12.20263812335481
144,187,67125248,12.35391569369396
145,188,67125248,12.241877077235975
146,189,67125248,12.351808380871136
147,190,67125248,12.206685656592695
148,191,67125248,12.355373274464608
149,192,67125248,12.154694419888683
150,193,67125248,12.353042674290897
151,194,67125248,12.224825966472503
152,195,67125248,12.35471606988777
153,196,67125248,12.190934482300825
154,197,67125248,12.351953846462422
155,198,67125248,12.172258812909492
156,199,67125248,12.355225454192055
157,200,67125248,12.307237380567527
158,201,67125248,12.351153828107535
159,202,67125248,12.341849867765726
160,203,67125248,12.351081104304932
161,204,67125248,12.251601052474806
162,205,67125248,12.349261015592115
163,206,67125248,12.117413466643344
164,207,67125248,12.35442728583668
165,208,67125248,12.16273084868459
166,209,67125248,12.354500049049715
167,210,67125248,12.159346721698263
168,211,67125248,12.35202430758994
169,212,67125248,12.20299084429114
170,213,67125248,12.33952890288436
171,214,67125248,12.19369824736558
172,215,67125248,12.355591600106244
173,216,67141632,11.653967841801492
174,217,67141632,12.35365706463341
175,218,67141632,11.197570949997573
176,219,67141632,12.356421649602925
177,220,67141632,11.59561408371747
178,221,67141632,12.35511195512962
179,222,67141632,11.246308607019241
180,223,67141632,12.353441133530387
181,224,67141632,11.165811429095994
182,225,67141632,12.353802538263842
183,226,67141632,11.26490575559943
184,227,67141632,12.336152536842198
185,228,67141632,11.213732998388128
186,229,67141632,12.353075204370903
187,230,67141632,11.232761793611301
188,231,67141632,12.355475731299778
189,232,67141632,12.192634585599421
190,233,67141632,12.353875276363862
191,234,67141632,12.149213468832796
192,235,67141632,12.35503920246609
193,236,67141632,12.229232984903986
194,237,67141632,12.355257463027138
195,238,67141632,12.208526159049919
196,239,67141632,12.356057817731045
197,240,67141632,12.224174328437774
198,241,67141632,12.352420677089006
199,242,67141632,12.21769903774766
200,243,67141632,12.323110942744629
201,244,67141632,12.244865087262149
202,245,67141632,12.355184708649965
203,246,67141632,12.201355636883834
204,247,67141632,12.353875276363862
205,248,67141632,12.191501056153445
206,249,67141632,12.353804811316502
207,250,67141632,12.20845734235217
208,251,67141632,12.354748200379797
209,252,67141632,12.209451930043032
210,253,67141632,12.353877549443288
211,254,67141632,12.200932147457237
212,255,67141632,12.354966450659358
213,256,67141632,12.190653260784307
214,257,67141632,12.355405247993676
215,258,67141632,12.196605814700385
216,259,67141632,12.353072931586723
217,260,67141632,12.181947496610764
218,261,67141632,12.353511594429023
219,262,67141632,12.178127171454758
220,263,67141632,12.355548489104416
221,264,67141632,11.754909271078532
222,265,67141632,12.352420677089006
223,266,67141632,11.649565841263342
224,267,67141632,12.354384467048416
225,268,67141632,11.678942303878902
226,269,67141632,12.353877549443288
227,270,67141632,12.200575197527671
228,271,67141632,12.35511195512962
229,272,67141632,12.206326628561456
230,273,67141632,12.339054418428226
231,274,67141632,12.207886859603803
232,275,67141632,12.354238979712603
233,276,67141632,12.200291426151054
234,277,67141632,12.329048692131636
235,278,67141632,12.171486529479425
236,279,67141632,12.354023028266546
237,280,67158016,11.597612437649767
238,281,67158016,12.353325857842055
239,282,67158016,11.343970111573167
240,283,67158016,12.354416668874192
241,284,67158016,11.554065281021026
242,285,67158016,12.354853047227987
243,286,67158016,11.294884406493976
244,287,67158016,12.356016873563084
245,288,67158016,11.196242112717947
246,289,67158016,12.352017138838125
247,290,67158016,11.24573956234428
248,291,67158016,12.351871742732117
249,292,67158016,11.256111934244664
250,293,67158016,12.3527441707157
251,294,67158016,11.241220006347225
252,295,67158016,12.354562124900292
253,296,67158016,12.204619137757074
254,297,67158016,12.354925779950726
255,298,67158016,12.176149633997627
256,299,67158016,12.3164248301765
257,300,67158016,12.222955774925712
258,301,67158016,12.354053043793064
259,302,67158016,12.173823258997585
260,303,67158016,12.353253143955335
261,304,67158016,12.197384059676683
262,305,67158016,12.354198491256884
263,306,67158016,12.185483930961642
264,307,67158016,12.355509945688238
265,308,67158016,12.189945139996109
266,309,67158016,12.330753028064125
267,310,67158016,12.224666742390484
268,311,67158016,12.354271216273094
269,312,67158016,12.224308489792783
270,313,67158016,12.35347128818358
271,314,67158016,12.169373840400723
272,315,67158016,12.352671463676629
273,316,67158016,12.191359164311738
274,317,67158016,12.355362194271182
275,318,67158016,12.202064600902936
276,319,67158016,12.354634854197757
277,320,67158016,12.232858874066501
278,321,67158016,12.355580412993245
279,322,67158016,12.126200716218117
280,323,67158016,12.354053043793064
281,324,67158016,12.178200847965831
282,325,67158016,12.353180430924626
283,326,67158016,12.157037505279037
284,327,67158016,12.356817131367372
285,328,67158016,11.561703463156139
286,329,67158016,12.353253143955335
287,330,67158016,11.561321314207813
288,331,67158016,12.35478031536159
289,332,67158016,11.608901227216037
290,333,67158016,12.352598757493444
291,334,67158016,12.150702838329543
292,335,67158016,12.352671463676629
293,336,67158016,12.22011115607559
294,337,67158016,12.355143983257145
295,338,67158016,12.173538592943164
296,339,67158016,12.352235239415315
297,340,67158016,12.211078990523406
298,341,67158016,12.351871742732117
299,342,67158016,12.147959865688362
300,343,67158016,12.353473560559838
301,344,67174400,11.507151370883555
302,345,67174400,12.346964283088505
303,346,67174400,11.102191816186057
304,347,67174400,12.35699649549322
305,348,67174400,11.516684125435683
306,349,67174400,12.347690543064276
307,350,67174400,11.225323285513948
308,351,67174400,12.352851718298401
309,352,67174400,11.136236135738793
310,353,67174400,12.355975949639038
311,354,67174400,11.106186006593173
312,355,67174400,12.354741973484197
313,356,67174400,11.154697061958565
314,357,67174400,12.35415802281682
315,358,67174400,11.185189428099111
316,359,67174400,12.352558689659027
317,360,67174400,12.219179198523827
318,361,67174400,12.351904536347561
319,362,67174400,12.161835051273885
320,363,67174400,12.353358304473325
321,364,67174400,12.223090174003406
322,365,67174400,12.353358304473325
323,366,67174400,12.164795103542481
324,367,67174400,12.353576399207892
325,368,67174400,12.198443343058884
326,369,67174400,12.354885129349032
327,370,67174400,12.222947831974498
328,371,67174400,12.353140217439277
329,372,67174400,12.258710651331599
330,373,67174400,12.355685045395017
331,374,67174400,12.174815785734378
332,375,67174400,12.327604685100523
333,376,67174400,12.228644100224987
334,377,67174400,12.35292213810534
335,378,67174400,12.16225782768457
336,379,67174400,12.353649099164045
337,380,67174400,12.240340294521527
338,381,67174400,12.355175995927123
339,382,67174400,12.153033889311331
340,383,67174400,12.353939907545543
341,384,67174400,12.212707911051059
342,385,67174400,12.355539598409647
343,386,67174400,12.142138123545257
344,387,67174400,12.351395798336632
345,388,67174400,12.210863084417944
346,389,67174400,12.354376145790113
347,390,67174400,12.158172219898459
348,391,67174400,12.354887401691094
349,392,67174400,11.524334361883286
350,393,67174400,12.356121406897932
351,394,67174400,11.529716554383588
352,395,67174400,12.355032833321715
353,396,67174400,11.576575660555743
354,397,67174400,12.354376145790113
355,398,67174400,12.134136924142677
356,399,67174400,12.355832768494599
357,400,67174400,12.208233338815804
358,401,67174400,12.353794501643387
359,402,67174400,12.192916809531233
360,403,67174400,12.354666988402785
361,404,67174400,12.221880372421806
362,405,67174400,12.35452156538474
363,406,67174400,12.117046938801646
364,407,67174400,12.355321434352055
365,408,67190784,11.40028321373271
366,409,67190784,12.35099277367819
367,410,67190784,11.079527122923272
368,411,67190784,12.355353396864253
369,412,67190784,11.478058015192063
370,413,67190784,12.337276907031743
371,414,67190784,11.14793967938309
372,415,67190784,12.353608778148764
373,416,67190784,11.045487677495908
374,417,67190784,12.355062592859559
375,418,67190784,11.057472017220425
376,419,67190784,12.354047158115065
377,420,67190784,11.035562543513919
378,421,67190784,12.354190262974415
379,422,67190784,11.166379270230205
380,423,67190784,12.351138078193427
381,424,67190784,12.219454402907756
382,425,67190784,12.355280694579701
383,426,67190784,12.17891319829682
384,427,67190784,12.354553718789441
385,428,67190784,12.185910683522044
386,429,67190784,12.354628684211542
387,430,67190784,12.184425696634008
388,431,67190784,12.35317497160862
389,432,67190784,12.204042526023876
390,433,67190784,12.35361104946737
391,434,67190784,12.218743322641073
392,435,67190784,12.354699107103455
393,436,67190784,12.246324869573332
394,437,67190784,12.354047158115065
395,438,67190784,12.200570019087795
396,439,67190784,12.344167315804171
397,440,67190784,12.224007277192824
398,441,67190784,12.342208206343003
399,442,67190784,12.149175451466157
400,443,67190784,12.355571508851627
401,444,67190784,12.196740808939985
402,445,67190784,12.35521026505745
403,446,67190784,12.176088210462108
404,447,67190784,12.354917195990573
405,448,67190784,12.178418730802086
406,449,67190784,12.355207993150746
407,450,67190784,12.270227468626276
408,451,67190784,12.352155305537172
409,452,67190784,12.295159434462203
410,453,67190784,12.32062667781543
411,454,67190784,12.351937314144026
412,455,67190784,12.278335414114421
413,456,67190784,11.11089349293543
414,457,67190784,12.354483297554966
415,458,67190784,11.078476711562635
416,459,67190784,12.35564421455871
417,460,67190784,11.23473158601492
418,461,67190784,12.354262952426621
419,462,67190784,12.052448256155394
420,463,67190784,12.354192534506849
421,464,67190784,11.972043582077745
422,465,67190784,12.353100023827103
423,466,67190784,12.044566707191198
424,467,67190784,12.353754144223387
425,468,67190784,12.006342791650301
426,469,67190784,12.354047158115065
427,470,67190784,12.222868740582598
428,471,67190784,12.329667873561732
429,472,67207168,11.010070846836433
430,473,67207168,12.35538761537589
431,474,67207168,10.646179181747804
432,475,67207168,12.354949247163812
433,476,67207168,10.871971439530057
434,477,67207168,12.35414981632515
435,478,67207168,10.633460056313355
436,479,67207168,12.354004476378428
437,480,67207168,10.692412267534442
438,481,67207168,12.353277827937193
439,482,67207168,10.71248400471554
440,483,67207168,12.354006747288796
441,484,67207168,10.58378431666203
442,485,67207168,12.352551264972195
443,486,67207168,10.624797624725694
444,487,67207168,12.35298719249489
445,488,67207168,11.900394406419577
446,489,67207168,12.354440506478037
447,490,67207168,11.793803824329672
448,491,67207168,12.35538761537589
449,492,67207168,11.952475481364841
450,493,67207168,12.35509460934122
451,494,67207168,11.860004055265254
452,495,67207168,12.355678363782603
453,496,67207168,11.895878269999848
454,497,67207168,12.339560229726356
455,498,67207168,11.862348596888548
456,499,67207168,12.348629301347914
457,500,67207168,11.931355862845939
458,501,67207168,12.292828576314868
459,502,67207168,11.872809837128429
460,503,67207168,12.35414981632515
461,504,67207168,11.899583187186508
462,505,67207168,12.35298719249489
463,506,67207168,11.923836809180942
464,507,67207168,12.35495151842153
465,508,67207168,12.276589087020591
466,509,67207168,12.257244088471085
467,510,67207168,12.304858435984944
468,511,67207168,12.186548174796663
469,512,67207168,12.226064936765969
470,513,67207168,12.352551264972195
471,514,67207168,11.673577660267032
472,515,67207168,12.33166286480948
473,516,67207168,10.873605552195668
474,517,67207168,12.355021927824954
475,518,67207168,11.025966334358923
476,519,67207168,12.35451318115373
477,520,67207168,11.08638224441315
478,521,67207168,12.353641141472337
479,522,67207168,11.04266433700063
480,523,67207168,12.354295159691645
481,524,67207168,11.12785284321915
482,525,67207168,12.35451318115373
483,526,67207168,11.74841221061258
484,527,67207168,12.354658533070188
485,528,67207168,12.025498495004761
486,529,67207168,12.351606860879869
487,530,67207168,11.935695484685844
488,531,67207168,12.352478613376308
489,532,67207168,12.012430109233534
490,533,67207168,12.351536490394857
491,534,67207168,12.018616854813068
492,535,67207168,12.353786472870155
493,536,67223552,11.208902085859455
494,537,67223552,12.35563528356541
495,538,67223552,10.947899578441822
496,539,67223552,12.353673489189912
497,540,67223552,11.123022032579367
498,541,67223552,12.352075450619298
499,542,67223552,10.831948983925992
500,543,67223552,12.35621667563649
501,544,67223552,10.77130139832049
502,545,67223552,12.350768271997978
503,546,67223552,10.877662536167287
504,547,67223552,12.35556261340344
505,548,67223552,10.889560068495959
506,549,67223552,12.356289353492517
507,550,67223552,11.018704582207945
508,551,67223552,12.354400007057183
509,552,67223552,12.060264407594588
510,553,67223552,12.353891435577916
511,554,67223552,11.9817783926586
512,555,67223552,12.354617979080961
513,556,67223552,12.078640335352324
514,557,67223552,12.332279586367626
515,558,67223552,12.10557695098923
516,559,67223552,12.296187468721557
517,560,67223552,12.34488939034674
518,561,67223552,12.335465838326957
519,562,67223552,12.209994265856125
520,563,67223552,12.321716546941666
521,564,67223552,12.312400489026663
522,565,67223552,12.332931185806833
523,566,67223552,12.217095142007594
524,567,67223552,12.249722974451693
525,568,67223552,12.34220357097154
526,569,67223552,12.346193057295467
527,570,67223552,12.277431175502834
528,571,67223552,12.319840015482372
529,572,67223552,11.245082334678255
530,573,67223552,12.355344608046392
531,574,67223552,11.448733603987396
532,575,67223552,12.354617979080961
533,576,67223552,11.565911372155258
534,577,67223552,12.3545453208851
535,578,67223552,11.532576864629249
536,579,67223552,12.356362032203515
537,580,67223552,11.53485850125801
538,581,67223552,12.352656507716235
539,582,67223552,11.58939438528511
540,583,67223552,12.357306933255686
541,584,67223552,11.450229307597512
542,585,67223552,12.352872148281026
543,586,67223552,11.532007091071968
544,587,67223552,12.355199275415591
545,588,67223552,11.388589412559755
546,589,67223552,12.353671218955506
547,590,67223552,12.098746616642439
548,591,67223552,12.353818785927462
549,592,67223552,12.113394991496564
550,593,67223552,12.354254696647583
551,594,67223552,12.14041685554173
552,595,67223552,12.354036737442257
553,596,67223552,12.122132416028645
554,597,67223552,12.353528195870075
555,598,67223552,12.037939891198675
556,599,67223552,12.354400007057183
557,600,67239936,11.355413813526162
558,601,67239936,12.35530389225518
559,602,67239936,11.013764598084023
560,603,67239936,12.353270055527304
