idx,og Index,data (B),bandwidth (GB/s)
0,0,13860864,11.769945034556137
1,2,13860864,11.582988274835646
2,4,13860864,11.905166571757654
3,6,13860864,11.591667565675749
4,8,13860864,11.597253981601174
5,10,13860864,11.702531084493593
6,12,13860864,11.57246659347357
7,14,13860864,11.832642569760006
8,16,13860864,11.652161778415927
9,18,13860864,11.723752821856586
10,20,13860864,11.858558291105181
11,22,13860864,11.842023920080718
12,24,13959168,11.671379252970485
13,25,13959168,10.95474228923813
14,26,13959168,11.74333067774666
15,28,13959168,11.782026274809354
16,30,13959168,10.836626565135811
17,32,13959168,11.735116908402626
18,36,13959168,11.56003335715593
19,38,13959168,11.665761039885743
20,40,13959168,11.748707438906868
21,42,13959168,11.489698574978455
22,44,13959168,11.404688782950771
23,46,13959168,11.136242012301654
24,50,13959168,11.77884491247611
25,52,13959168,11.583660422513471
26,54,13959168,11.93025002884455
27,60,13959168,11.643963754751496
28,64,13959168,11.912006328417204
29,70,13959168,11.68889279658356
30,72,13959168,11.938412592526074
31,74,13959168,12.228579437942393
32,76,13959168,11.93808587553034
33,78,13959168,12.32184167784761
34,80,13959168,11.732276356961496
35,82,13959168,12.262955935062196
36,84,13959168,11.730067989711209
37,86,13959168,12.172277642134636
38,88,14057472,11.709398107001164
39,89,14057472,12.292298006295908
40,90,14057472,11.421995113497035
41,91,14057472,12.06045381542643
42,92,14057472,11.31403377596921
43,93,14057472,12.307106136799787
44,94,14057472,10.506057016445759
45,95,14057472,11.793646225983743
46,96,14057472,11.604539297014885
47,97,14057472,11.800299005860078
48,98,14057472,11.452367587718834
49,99,14057472,11.53505531421857
50,100,14057472,12.027094061773571
51,101,14057472,11.273964088453177
52,102,14057472,11.518429934293811
53,103,14057472,11.831444815237198
54,104,14057472,11.701288788299271
55,105,14057472,11.208943251497054
56,106,14057472,12.112652415512843
57,107,14057472,12.180504914669143
58,108,14057472,12.031705736800618
59,109,14057472,12.034342567885128
60,110,14057472,11.51601431650486
61,111,14057472,11.410415378096829
62,112,14057472,11.895852796620497
63,113,14057472,11.127738699672758
64,114,14057472,11.881364455822704
65,115,14057472,12.204870323808466
66,116,14057472,11.650086479740038
67,117,14057472,12.150856763522205
68,118,14057472,12.1330595567616
69,119,14057472,12.11734039472051
70,120,14057472,11.934948774919535
71,121,14057472,11.497929427969204
72,122,14057472,12.129384965831434
73,123,14057472,11.64854188884497
74,124,14057472,11.875261982781998
75,125,14057472,11.52991797194429
76,126,14057472,11.655341154152609
77,127,14057472,11.106357360351549
78,128,14057472,11.87110024185594
79,129,14057472,11.860513502408388
80,130,14057472,11.903911553104718
81,131,14057472,11.085617491613318
82,132,14057472,11.715331259307904
83,133,14057472,11.754515557465753
84,134,14057472,12.113664878876035
85,135,14057472,11.722521545883247
86,136,14057472,11.990654819429718
87,137,14057472,11.893266236254927
88,138,14057472,11.911648144931343
89,139,14057472,11.889403587591861
90,140,14057472,11.65194052960382
91,141,14057472,11.460126100361801
92,142,14057472,11.948907957312798
93,143,14057472,12.313315487786078
94,144,14057472,12.00671335265344
95,145,14057472,11.593198533353346
96,146,14057472,11.678269776669001
97,147,14057472,11.258929872925814
98,148,14057472,12.111327074976222
99,149,14057472,11.739437825324835
100,150,14057472,11.929125198571642
101,151,14057472,11.84804800755175
102,152,13172736,11.85571966911682
103,153,13172736,11.669846489673844
104,154,13172736,11.826076963959952
105,155,13172736,11.462846163485235
106,156,13172736,12.077632872210893
107,157,13172736,11.58380819720569
108,158,13172736,11.276328224514113
109,159,13172736,11.070409822632898
110,160,13172736,11.79625463871735
111,161,13172736,11.735385931152448
112,162,13172736,11.681437023794322
113,163,13172736,11.681105546175566
114,164,13172736,11.749789493213832
115,165,13172736,11.738397707344198
116,166,13271040,11.573517471851172
117,167,13271040,11.437859882975816
118,168,13271040,11.532643862150952
119,169,13271040,11.737967536051398
120,170,13271040,11.806481401578404
121,171,13271040,11.957270748338548
122,172,13271040,11.534899244857941
123,173,13271040,11.9510683976197
124,174,13271040,11.788348659058284
125,175,13271040,11.954524122014869
126,176,13271040,11.42274799278366
127,177,13271040,11.899631292770756
128,178,13271040,11.541951750247215
129,179,13271040,12.007469924866454
130,180,13271040,11.665330576768913
131,181,13271040,12.202503385998288
132,182,13271040,11.77262082180115
133,183,13271040,11.98076006413312
134,184,13271040,11.824986099824644
135,185,13271040,11.925980244144416
136,186,13271040,11.727014378826224
137,187,13271040,12.03709347381253
138,188,13271040,11.850338471649371
139,189,13271040,11.898607066519387
140,190,13271040,11.843548895209317
141,191,13271040,11.825660474201229
142,192,13271040,11.803782606839432
143,193,13271040,11.962455076704245
144,194,13271040,11.880881784194921
145,195,13271040,11.892135048940322
146,196,13271040,12.024180571461708
147,197,13271040,11.83139576349761
148,198,13271040,11.624458677280563
149,199,13271040,11.93318658552376
150,200,13271040,11.863548594722163
151,201,13271040,11.956926004411192
152,202,13271040,11.608839871796667
153,203,13271040,11.786673487658268
154,204,13271040,11.868981011118583
155,205,13271040,11.729999575737862
156,206,13271040,12.121176694091686
157,207,13271040,11.797738425432046
158,208,13271040,11.867282846637002
159,209,13271040,11.8771389704303
160,210,13271040,11.806807020540633
161,211,13271040,11.808824157519327
162,212,13271040,11.531050590148892
163,213,13271040,11.962789356025096
164,214,13271040,11.956236576189584
165,215,13271040,11.696256081224
166,216,13271040,11.687346158757558
167,217,13271040,11.861184077049648
168,218,13271040,11.688674060399375
169,219,13271040,11.737292745117289
170,220,13271040,11.653202579484946
171,221,13271040,11.837812379579546
172,222,13271040,11.32944502875251
173,223,13271040,11.030511478064135
174,224,13271040,11.98769708822055
175,225,13271040,11.676826263849197
176,226,13271040,12.126138506746978
177,227,13271040,11.585813859283988
178,228,13271040,11.639792868269272
179,229,13271040,11.867293458655963
180,230,13369344,11.658596522131928
181,231,13369344,11.085682350180473
182,232,13369344,11.606461739335769
183,233,13369344,11.168361495080083
184,234,13369344,11.581366339103798
185,235,13369344,11.068648027042936
186,236,13369344,11.6735914164769
187,237,13369344,11.30985359069518
188,238,13369344,11.554461606537881
189,239,13369344,11.61774778430771
190,240,13369344,11.61905026767712
191,241,13369344,11.535947413517135
192,242,13369344,11.70334888020505
193,243,13369344,11.673265251952333
194,244,13369344,11.564696275587172
195,245,13369344,11.94117899249732
196,246,13369344,11.789877668505637
197,247,13369344,11.421791489536202
198,248,13369344,11.855450405073707
199,249,13369344,11.804534859080313
200,250,13369344,11.922437040736249
201,251,13369344,11.639119109637699
202,252,13369344,11.599684528627986
203,253,13369344,11.58938786478673
204,254,13369344,11.778898262152817
205,255,13369344,11.694176591605672
206,256,13369344,11.708586396880126
207,257,13369344,11.106901487666747
208,258,13369344,11.135320353982301
209,259,13369344,11.67424380020957
210,260,13369344,11.938108096523939
211,261,13369344,11.712207224254657
212,262,13369344,11.814215221909595
213,263,13369344,11.666745786850225
214,264,13369344,11.959637597148868
215,265,13369344,11.146312323824182
216,266,13369344,11.628752348479576
217,267,13369344,11.482997544390361
218,268,13369344,11.60000659419416
219,269,13369344,11.324578166293962
220,270,13369344,11.82458076841435
221,271,13369344,10.364073583106585
222,272,13369344,11.366778979694383
223,273,13369344,11.57494909196692
224,274,13369344,11.79853433303681
225,275,13369344,11.675548786451856
226,276,13369344,11.772270671607094
227,277,13369344,11.923117535423296
228,278,13369344,12.015368203277292
229,279,13369344,11.936402725597475
230,280,13369344,11.677823014214102
231,281,13369344,11.040558909268084
232,282,13369344,11.771265257391299
233,283,13369344,11.4449353462113
234,284,13369344,11.605816909037877
235,285,13369344,11.573025304358666
236,286,13369344,12.132595722437602
237,287,13369344,11.162393661920676
238,288,13369344,11.595821136307457
239,289,13369344,11.477013941350181
240,290,13369344,11.416475884606813
241,291,13369344,11.2025097534489
242,292,13369344,11.45059131459581
243,293,13369344,11.53723161891612
244,294,13467648,11.697652764845671
245,295,13467648,11.646496922695091
246,296,13467648,11.623659097166422
247,297,13467648,11.698953425342951
248,298,13467648,11.740072806393574
249,299,13467648,11.945006124326035
250,300,13467648,11.500744647419694
251,301,13467648,12.06449855953217
252,302,13467648,11.741382917881404
253,303,13467648,11.839482382727336
254,304,13467648,11.434803022983129
255,305,13467648,11.914898435841177
256,306,13467648,11.719140515888865
257,307,13467648,11.796011603626834
258,308,13467648,11.63715796377248
259,309,13467648,12.083549864339139
260,310,13467648,11.942961733282255
261,311,13467648,11.873217383944818
262,312,13467648,11.766330709982247
263,313,13467648,11.566487570939772
264,314,13467648,11.232765702971156
265,315,13467648,10.438985218543868
266,316,13467648,11.406909881532062
267,317,13467648,11.68076032739595
268,318,13467648,11.936197989369877
269,319,13467648,11.794358737231494
270,320,13467648,10.510153785642823
271,321,13467648,11.248677611055196
272,322,13467648,11.825178067180849
273,323,13467648,11.736788578031902
274,324,13467648,11.971157538435282
275,325,13467648,11.426731002393499
276,326,13467648,11.803610414583291
277,327,13467648,11.744987232617524
278,328,13467648,11.853487487853995
279,329,13467648,11.370851595025671
280,330,13467648,11.749577743966276
281,331,13467648,11.505450879718422
282,332,13467648,11.303966983630307
283,333,13467648,11.300628229989067
284,334,13467648,11.939922922183676
285,335,13467648,11.370851595025671
286,336,13467648,11.634916027368858
287,337,13467648,11.673642604535052
288,338,13467648,11.713931836842619
289,339,13467648,11.401048368527272
290,340,13467648,11.641664556048369
291,341,13467648,11.610511805219694
292,342,13467648,11.877573482721154
293,343,13467648,11.535409270195846
294,344,13467648,12.08390765097877
295,345,13467648,11.924350819532789
296,346,13467648,11.0938977848693
297,347,13467648,11.19660667773498
298,348,13467648,11.482849028306287
299,349,13467648,11.858831485368912
300,350,13467648,11.47346755176315
301,351,13467648,11.636524504043686
302,352,13467648,11.566805458218246
303,353,13467648,11.796331900066656
304,354,13467648,11.541113076385175
305,355,13467648,11.792706333973129
306,356,13467648,11.599322005870437
307,357,13467648,11.380691022387625
308,358,13565952,11.969000127048659
309,359,13565952,11.565718767717156
310,360,13565952,11.471206459615985
311,361,13565952,11.72308330452817
312,362,13565952,11.674014512109489
313,363,13565952,11.57330639767407
314,364,13565952,11.56824358376347
315,365,13565952,11.37181680630708
316,366,13565952,11.71076736615571
317,367,13565952,11.704947312020003
318,368,13565952,11.816207929760992
319,369,13565952,11.440867977516245
320,370,13565952,11.413752080244867
321,371,13565952,11.807979945686233
322,372,13565952,11.769624786573939
323,373,13565952,11.690754912099276
324,374,13565952,11.629819628283382
325,375,13565952,11.113356473270423
326,376,13565952,11.66277390335493
327,377,13565952,11.60910898104592
328,378,13565952,11.47058569866734
329,379,13565952,11.640357500789412
330,380,13565952,11.967986449290706
331,381,13565952,11.83534108516311
332,382,13565952,11.515452882481018
333,383,13565952,11.750703346961403
334,384,13565952,11.411918203361001
335,385,13565952,11.881780854552334
336,386,13565952,12.032868313866851
337,387,13565952,12.296019142919295
338,388,13565952,11.86282932016286
339,389,13565952,11.683988589854893
340,390,13565952,11.545245420310206
341,391,13565952,11.505452090554657
342,392,13565952,11.383420223893184
343,393,13565952,11.413147123777474
344,394,13565952,11.745158762797342
345,395,13565952,11.173991507868195
346,396,13565952,11.110443903361892
347,397,13565952,11.447973812857118
348,398,13565952,11.931608055051294
349,399,13565952,11.751680549972972
350,400,13565952,11.985581204676214
351,401,13565952,11.69494751651747
352,402,13565952,11.765694803769962
353,403,13565952,11.131156270795094
354,404,13565952,11.570137919329431
355,405,13565952,11.595137990835655
356,406,13565952,11.78303709159637
357,407,13565952,11.444265319602867
358,408,13565952,11.69397972553617
359,409,13565952,11.538018355771284
360,410,13565952,12.02501808279794
361,411,13565952,11.309625220403417
362,412,13565952,11.727947990870739
363,413,13565952,11.618982363339866
364,414,13565952,12.114025476512584
365,415,13565952,11.310832207054162
366,416,13565952,11.742881404788058
367,417,13565952,11.79943498893636
368,418,13565952,11.617698769458173
369,419,13565952,11.387701138522313
370,420,13565952,11.005741405536964
371,421,13565952,11.783364602876798
372,422,13664256,11.624158127783378
373,423,13664256,11.537161138125027
374,424,13664256,11.271887956365148
375,425,13664256,11.488119049120373
376,426,13664256,11.505763299289914
377,427,13664256,11.37913270714855
378,428,13664256,11.607095621682369
379,429,13664256,11.549018596918573
380,430,13664256,11.659707437617381
381,431,13664256,10.798420096823598
382,432,13664256,11.466832489533271
383,433,13664256,11.637780857128986
384,434,13664256,11.593859374482957
385,435,13664256,11.11694211715853
386,436,13664256,11.45299239862104
387,437,13664256,11.767996369076172
388,438,13664256,11.839463213785645
389,439,13664256,11.50359354281986
390,440,13664256,11.63747359814676
391,441,13664256,11.737589389637888
392,442,13664256,11.845693316376554
393,443,13664256,11.68588278759185
394,444,13664256,11.63873247174483
395,445,13664256,11.953809330515236
396,446,13664256,11.824382139148494
397,447,13664256,10.998690388319584
398,448,13664256,11.653025389030976
399,449,13664256,11.811942597662378
400,450,13664256,11.558396979173452
401,451,13664256,11.81620200622622
402,452,13664256,11.98500148669474
403,453,13664256,11.907474798176267
404,454,13664256,11.726961894953655
405,455,13664256,11.824371906912507
406,456,13664256,11.971571554733169
407,457,13664256,11.75440093593008
408,458,13664256,11.392490801719847
409,459,13664256,11.227431756669038
410,460,13664256,11.3269134324696
411,461,13664256,11.972914242453982
412,462,13664256,11.569671162982488
413,463,13664256,11.376101144165903
414,464,13664256,11.577837127014899
415,465,13664256,11.524705878383907
416,466,13664256,11.61436672967864
417,467,13664256,11.01627417625386
418,468,13664256,11.327514385027136
419,469,13664256,11.298432107319865
420,470,13664256,11.745014865795262
421,471,13664256,11.596378236490736
422,472,13664256,11.877324418553105
423,473,13664256,11.482867200742204
424,474,13664256,11.63366889618439
425,475,13664256,11.676605780939562
426,476,13664256,11.461609695212788
427,477,13664256,11.736631622345907
428,478,13664256,11.74049389229089
429,479,13664256,11.597332934993686
430,480,13664256,11.192411844206905
431,481,13664256,11.780668478335839
432,482,13664256,11.770277161404138
433,483,13664256,10.990189123584228
434,484,13664256,11.770591473200096
435,485,13664256,11.53934357701126
436,486,13762560,11.516854073622188
437,487,13762560,11.72055757674856
438,488,13762560,11.206256096746719
439,489,13762560,11.789301999268446
440,490,13762560,11.606677658349813
441,491,13762560,10.982758042815213
442,492,13762560,11.306133011299922
443,493,13762560,11.381833308660742
444,494,13762560,11.515630229600374
445,495,13762560,11.828860661141256
446,496,13762560,11.64060563872285
447,497,13762560,11.730787589498807
448,498,13762560,11.476594520445136
449,499,13762560,12.315280545565669
450,500,13762560,11.281508161997243
451,501,13762560,11.847107768828103
452,502,13762560,11.418397291290031
453,503,13762560,11.607304156851631
454,504,13762560,11.415366571639252
455,505,13762560,11.61985815602837
456,506,13762560,11.475063472145212
457,507,13762560,11.051344664743212
458,508,13762560,11.284773555247796
459,509,13762560,10.830367864972953
460,510,13762560,11.364389669907723
461,511,13762560,11.549027242578445
462,512,13762560,11.689974314021283
463,513,13762560,11.832766022204664
464,514,13762560,11.277080238380663
465,515,13762560,11.088376290113361
466,516,13762560,11.82788472363908
467,517,13762560,11.793838180247624
468,518,13762560,11.481190117668651
469,519,13762560,11.660814749542466
470,520,13762560,11.755145549634472
471,521,13762560,11.738461814022635
472,522,13762560,11.660498596933587
473,523,13762560,11.57325830054433
474,524,13762560,11.51870478849616
475,525,13762560,11.515620594065371
476,526,13762560,11.922975961825852
477,527,13762560,11.05162864762382
478,528,13762560,11.708741382786757
479,529,13762560,11.697595214397605
480,530,13762560,11.689974314021283
481,531,13762560,11.677585497371759
482,532,13762560,11.640920713516604
483,533,13762560,11.64628945123685
484,534,13762560,11.694732486019491
485,535,13762560,11.834404193552825
486,536,13762560,11.581049320539327
487,537,13762560,11.806130668526473
488,538,13762560,11.932910672419295
489,539,13762560,11.52796729212684
490,540,13762560,11.578555053107582
491,541,13762560,11.093524553560632
492,542,13762560,11.939536110378524
493,543,13762560,11.282405263050027
494,544,13762560,11.730457632882812
495,545,13762560,11.664293560066719
496,546,13762560,11.815546916853254
497,547,13762560,11.679171068878167
498,548,13762560,11.680122618474755
499,549,13762560,11.574825400670138
500,550,13860864,11.435290274091606
501,551,13860864,11.156082865373147
502,552,13860864,11.552404725689163
503,553,13860864,11.726609368350788
504,554,13860864,11.763881533384936
505,555,13860864,11.84559637919954
506,556,13860864,11.334736594197565
507,557,13860864,11.779867879934425
508,558,13860864,11.440726944369013
509,559,13860864,11.701266545158925
510,560,13860864,11.520143618811737
511,561,13860864,11.857909014614432
512,562,13860864,11.463122637842487
513,563,13860864,11.851420157957785
514,564,13860864,11.671323678006063
515,565,13860864,11.769305425005923
516,566,13860864,11.719004910514995
517,567,13860864,11.732326639439659
518,568,13860864,11.674469375379017
519,569,13860864,11.626515190277953
520,570,13860864,11.768985646298647
521,571,13860864,11.985545606654762
522,572,13860864,11.508502974920335
523,573,13860864,11.935346486654513
524,574,13860864,11.569684641408042
525,575,13860864,11.749203206162777
526,576,13860864,11.68895159338477
527,577,13860864,11.63838614362687
528,578,13860864,11.322301992551925
529,579,13860864,11.56535981796958
530,580,13860864,11.910414518457413
531,581,13860864,11.603156598528182
532,582,13860864,11.63026129537596
533,583,13860864,11.051046913792856
534,584,13860864,12.007807187082276
535,585,13860864,11.686743960749828
536,586,13860864,11.588876375466223
537,587,13860864,11.315794672764515
538,588,13860864,11.265175952542918
539,589,13860864,11.846234183570997
540,590,12681216,9.609173000813064
541,591,12681216,12.151053389560103
542,592,12681216,11.346991367091869
543,593,12681216,12.063389506428276
544,594,12681216,11.705622590792952
545,595,12681216,12.256278565843635
546,596,12681216,11.935857506303844
