idx,og Index,data (B),bandwidth (GB/s)
0,0,4227072,11.238237538317563
1,1,4227072,11.495448945792553
2,2,4227072,11.323980336740025
3,3,4227072,8.924067548994978
4,4,4227072,10.514529055623822
5,5,4227072,8.297894643856187
6,6,4227072,10.696763189792826
7,7,4227072,8.501907717557236
8,8,4227072,10.151737918148655
9,9,4227072,8.506287542636361
10,10,4227072,10.823853553989036
11,11,4227072,9.476571274842788
12,12,4227072,11.254484943688597
13,13,4227072,9.245119438697175
14,14,4227072,10.602296498066186
15,15,4227072,8.764785528708487
16,16,4227072,10.838924074976282
17,17,4227072,8.79632088232234
18,18,4227072,10.998662593735526
19,19,4227072,9.220596896417836
20,20,4227072,9.882131810945204
21,22,4227072,11.64440942886343
22,23,4227072,9.597079377188082
23,24,4227072,10.813221220872974
24,25,4227072,9.472493932732322
25,26,4227072,10.607431348980304
26,27,4227072,9.789103641845795
27,28,4227072,10.711508784199843
28,29,4227072,9.276933813814868
29,30,4227072,10.71669565305574
30,31,4227072,8.729453504628989
31,32,4227072,11.023473052018328
32,33,4227072,8.839862563077316
33,34,4227072,10.728881443691463
34,35,4227072,8.405075171150822
35,36,4227072,9.619443369819994
36,37,4227072,9.501814013082473
37,38,4227072,10.001826656886639
38,39,4227072,8.832197376503872
39,40,4227072,10.423265654358858
40,41,4227072,9.868819543992194
41,42,4227072,10.566676165764253
42,43,4227072,9.739281098006327
43,44,4227072,10.807001037986204
44,45,4227072,9.940859127702707
45,46,4227072,10.628742123499505
46,47,4227072,9.640504481492462
47,48,4227072,10.810566400605607
48,49,4227072,8.401333219382959
49,50,4227072,10.483679517863122
50,51,4227072,8.827457163441961
51,52,4227072,10.56836694385135
52,53,4227072,8.950673671238272
53,54,4227072,9.975391150442478
54,55,4227072,9.322764625706307
55,56,4227072,10.46040851072254
56,58,4227072,10.341662956094554
57,59,4227072,8.777015284246284
58,60,4227072,10.233504897569857
59,62,4227072,10.513692190601262
60,63,4227072,9.105535821606054
61,64,4259840,10.23198166821193
62,65,4259840,8.482104278048245
63,66,4259840,10.371488534935699
64,67,4259840,8.747428036354526
65,68,4259840,10.51651352138685
66,69,4259840,9.317418759336908
67,70,4259840,10.067925598544115
68,71,4259840,8.235967395171144
69,72,4259840,11.216569549292881
70,73,4259840,9.05197217157744
71,74,4259840,11.056334920902708
72,75,4259840,8.609929278699326
73,76,4259840,10.736214409750664
74,78,4259840,10.238277212968972
75,79,4259840,8.623856182686858
76,80,4259840,10.283358197785857
77,82,4259840,11.01607735335266
78,83,4259840,9.413636584622049
79,84,4259840,10.216276626871256
80,85,4259840,8.157237618150344
81,86,4259840,10.699110132136461
82,87,4259840,8.244654805014331
83,88,4259840,11.029768547407778
84,89,4259840,9.039045474896609
85,90,4259840,10.594376810873323
86,91,4259840,9.032931147819081
87,92,4259840,10.621426665769048
88,93,4259840,9.33048005589737
89,94,4259840,10.775293802202695
90,95,4259840,8.849776669782901
91,96,4259840,10.47266433604256
92,97,4259840,8.430535517438605
93,98,4259840,10.274627470465367
94,99,4259840,8.608258984955189
95,100,4259840,10.27859414435935
96,101,4259840,9.69895675377841
97,102,4259840,10.517344394242402
98,103,4259840,8.511934139932661
99,104,4259840,10.571660433454358
100,105,4259840,8.570020299237722
101,106,4259840,10.320029846841129
102,107,4259840,9.184985219380616
103,108,4259840,10.593533722772229
104,110,4259840,10.470193238852266
105,111,4259840,8.742239944507267
106,112,4259840,10.394163433618818
107,113,4259840,8.845072528166178
108,114,4259840,10.816471108018963
109,115,4259840,8.912582277103846
110,116,4259840,10.59856789558277
111,117,4259840,8.429467835227397
112,118,4259840,10.27700710732397
113,119,4259840,8.75836290591191
114,120,4259840,10.730994593995456
115,122,4259840,10.203747263328847
116,123,4259840,9.289480685441136
117,124,4259840,9.130824334346478
118,126,4259840,10.9508299549868
119,127,4259840,8.555149650450769
120,128,4292608,10.319414194156366
121,129,4292608,8.657139515091378
122,130,4292608,11.10449212939609
123,131,4292608,8.803128646515853
124,132,4292608,9.98901178173424
125,133,4292608,8.606577525418087
126,134,4292608,10.835404440069164
127,135,4292608,7.825814602593529
128,136,4292608,10.356061008149538
129,138,4292608,10.612527040557746
130,139,4292608,9.142117212091783
131,140,4292608,10.040577649078653
132,141,4292608,8.475525745797883
133,142,4292608,10.687753648808132
134,144,4292608,10.317033191530271
135,145,4292608,9.368763136126832
136,146,4292608,10.492962497616684
137,147,4292608,9.60284912776781
138,148,4292608,10.155355883925488
139,150,4292608,10.58739903069467
140,151,4292608,9.235903901681247
141,152,4292608,10.581526856804793
142,153,4292608,8.0314927629511
143,154,4292608,10.334519435871014
144,155,4292608,8.915462564307063
145,156,4292608,10.523419381726361
146,158,4292608,11.040516454263706
147,159,4292608,9.355694897596676
148,160,4292608,10.36806739738468
149,162,4292608,10.50942948148257
150,163,4292608,8.846688732167957
151,164,4292608,10.606653175491527
152,165,4292608,9.129051878506383
153,166,4292608,10.921832938961403
154,167,4292608,9.495428815385194
155,168,4292608,10.529201395191397
156,169,4292608,9.490075741832218
157,170,4292608,10.224244127608694
158,171,4292608,9.06303746101989
159,172,4292608,10.515170369644563
160,173,4292608,9.216866279893674
161,174,4292608,9.94898276093839
162,175,4292608,9.577481380996792
163,176,4292608,10.202470872886472
164,177,4292608,8.548440608502224
165,178,4292608,10.658879734608641
166,179,4292608,8.796201693828163
167,180,4292608,10.123932208506483
168,181,4292608,8.819334041464723
169,182,4292608,10.1615100914217
170,184,4292608,10.982666117440573
171,186,4292608,10.600785809010379
172,187,4292608,9.10054336880177
173,188,4292608,10.675845465895355
174,189,4292608,9.398300576035101
175,190,4292608,10.364862972353013
176,191,4292608,7.755235216644294
177,192,4325376,10.155228842568897
178,193,4325376,8.298497383082896
179,194,4325376,11.138517637242934
180,195,4325376,8.47277293179472
181,196,4325376,10.584652731214792
182,198,4325376,11.680419108314656
183,199,4325376,9.155726965029222
184,200,4325376,10.248394755173509
185,201,4325376,9.084347926533441
186,202,4325376,10.84973235472656
187,203,4325376,8.641781830459983
188,204,4325376,11.022256652277395
189,206,4325376,10.694358320105623
190,208,4325376,10.612909082879002
191,210,4325376,10.59626945746917
192,212,4325376,10.504043401605704
193,213,4325376,9.13779655645928
194,214,4325376,10.274101064613134
195,216,4325376,10.280352329931407
196,218,4325376,10.275663168097612
197,219,4325376,10.099836081650952
198,220,4325376,10.796031399368518
199,221,4325376,9.526798260877227
200,222,4325376,10.377432186676776
201,224,4325376,10.593778012902467
202,225,4325376,9.63339703072174
203,226,4325376,10.750495846816888
204,228,4325376,9.331443475784582
205,230,4325376,11.14865209692427
206,232,4325376,10.700284491502362
207,233,4325376,9.428448114256318
208,234,4325376,10.643830560025986
209,235,4325376,8.798174207012705
210,236,4325376,10.49914800448572
211,238,4325376,10.75135094827372
212,239,4325376,8.565117950728615
213,240,4325376,10.669034616466131
214,241,4325376,9.235191883132133
215,242,4325376,11.118389631621293
216,244,4325376,10.979309924687213
217,245,4325376,8.710839369974082
218,246,4325376,10.891724268177526
219,247,4325376,8.89367380634655
220,248,4325376,10.535153909481059
221,249,4325376,8.953172252339524
222,250,4325376,10.50730953664971
223,251,4325376,9.48534887698846
224,252,4325376,11.134876033908863
225,253,4325376,9.130987137510212
226,254,4325376,10.344869151770553
227,255,4325376,8.520306113403787
228,256,4358144,10.035378260008565
229,257,4358144,8.863078302851832
230,258,4358144,11.534699559853797
231,259,4358144,9.512482811306342
232,260,4358144,11.080487240571854
233,261,4358144,9.732040534686275
234,262,4358144,10.931927296807823
235,263,4358144,9.337672772305867
236,264,4358144,10.981316252970124
237,265,4358144,8.199289970217881
238,266,4358144,10.878661254973615
239,268,4358144,11.316151077829074
240,269,4358144,8.888529933042497
241,270,4358144,9.656802635923095
242,271,4358144,8.894915697027711
243,272,4358144,10.853519681627327
244,273,4358144,9.007277093792046
245,274,4358144,11.403350768353215
246,275,4358144,8.88099493200904
247,276,4358144,10.560666089944435
248,277,4358144,8.741340682395746
249,278,4358144,10.522292132444191
250,279,4358144,9.001323923357024
251,280,4358144,10.832800576669733
252,281,4358144,9.303864242362138
253,282,4358144,10.687462142669718
254,283,4358144,9.571312487097384
255,284,4358144,10.5746057704673
256,286,4358144,11.084094417697342
257,287,4358144,9.611842598596427
258,288,4358144,11.205384989188369
259,289,4358144,8.899565655101153
260,290,4358144,10.899556329186737
261,291,4358144,9.3801392123354
262,292,4358144,11.483153942428036
263,293,4358144,8.755952464664933
264,294,4358144,10.92403559343276
265,295,4358144,9.161789159678529
266,296,4358144,10.317429203183666
267,297,4358144,8.716165973676368
268,298,4358144,10.614138403012191
269,299,4358144,9.27471882016195
270,300,4358144,11.301156268719028
271,302,4358144,10.779640558603393
272,303,4358144,8.830322788490568
273,304,4358144,10.175589665043171
274,306,4358144,11.13572461583275
275,307,4358144,9.578043752499923
276,308,4358144,10.892609616071942
277,310,4358144,10.027250765018522
278,311,4358144,9.222589731055484
279,312,4358144,10.763453872788972
280,314,4358144,10.936343948948686
281,315,4358144,9.850983370516289
282,316,4358144,9.890351892448814
283,317,4358144,9.321694789819626
284,318,4358144,10.664839494330057
285,319,4358144,9.08175602599822
286,320,4390912,9.345726442061082
287,321,4390912,8.347360576703725
288,322,4390912,9.72047162167547
289,323,4390912,8.12158765331168
290,324,4390912,11.048737711146842
291,326,4390912,10.194211633381778
292,328,4390912,10.849526821674779
293,329,4390912,10.3183986539519
294,330,4390912,10.566329047519353
295,331,4390912,8.777207189018576
296,332,4390912,10.519321345235186
297,333,4390912,9.651395425001814
298,334,4390912,10.24444371859062
299,336,4390912,10.987663341858056
300,337,4390912,8.97469009003485
301,338,4390912,10.631001697217387
302,339,4390912,8.652128592399926
303,340,4390912,10.301332326092618
304,341,4390912,8.375383394625608
305,342,4390912,10.714820472525489
306,343,4390912,9.987199024687595
307,344,4390912,10.122766652988016
308,346,4390912,10.171541351815904
309,348,4390912,11.49194683919327
310,349,4390912,8.797465894360172
311,350,4390912,10.176067338132164
312,351,4390912,9.315272388605905
313,352,4390912,10.173049566518852
314,353,4390912,9.853091522715747
315,354,4390912,10.789807101609535
316,355,4390912,8.643952950440475
317,356,4390912,10.563863213153248
318,357,4390912,8.655932123200177
319,358,4390912,10.426599165095482
320,359,4390912,8.67510288431713
321,360,4390912,9.88076239339319
322,362,4390912,10.838386082354626
323,363,4390912,9.082208979797834
324,364,4390912,10.438496978456945
325,365,4390912,8.955360985170637
326,366,4390912,10.257486526704806
327,368,4390912,10.520127844516534
328,369,4390912,9.52147090266047
329,370,4390912,10.10317827370475
330,371,4390912,8.792973490385808
331,372,4390912,10.53577821394465
332,374,4390912,10.315732100401267
333,376,4390912,10.512370418252772
334,377,4390912,8.830284601895201
335,378,4390912,10.547926645879476
336,379,4390912,8.670803037902694
337,380,4390912,10.61807066925897
338,381,4390912,9.415223763463224
339,382,4390912,10.646054625465213
340,383,4390912,9.524300358768128
341,384,4423680,9.999773948975763
342,385,4423680,9.434386389955831
343,386,4423680,9.864289313954162
344,387,4423680,9.087898497429977
345,388,4423680,9.942283834079507
346,389,4423680,9.878364949811864
347,390,4423680,10.71057091666263
348,391,4423680,10.01859371709014
349,392,4423680,10.90046202180743
350,393,4423680,9.403581867460275
351,394,4423680,10.429517859247907
352,396,4423680,10.539196066098691
353,397,4423680,8.878487978853862
354,398,4423680,10.661859163619798
355,399,4423680,8.83594396040316
356,400,4423680,10.236587804065312
357,401,4423680,8.380896085664107
358,402,4423680,10.472181846589429
359,403,4423680,9.504399110509523
360,404,4423680,10.94875443959063
361,405,4423680,8.940466013060007
362,406,4423680,10.816081527466375
363,408,4423680,10.840679012799495
364,410,4423680,10.897884071038453
365,411,4423680,8.022196833686959
366,412,4423680,10.450016299802986
367,413,4423680,8.688328829111935
368,414,4423680,10.62498348733148
369,415,4423680,8.796638581936554
370,416,4423680,9.609363290185097
371,417,4423680,9.390187987161852
372,418,4423680,10.76976262933658
373,419,4423680,8.832009966677914
374,420,4423680,10.315215110178384
375,422,4423680,10.27076474439641
376,424,4423680,10.282988605140936
377,426,4423680,10.09979520407674
378,427,4423680,8.75596523487834
379,428,4423680,10.931465821871432
380,429,4423680,8.945094098116016
381,430,4423680,10.775639058183891
382,432,4423680,9.906681447143
383,433,4423680,8.688328829111935
384,434,4423680,10.680779965811306
385,435,4423680,9.72692711093325
386,436,4423680,9.58872159916071
387,438,4423680,10.68408188501705
388,440,4423680,10.687385846403618
389,441,4423680,9.240892654588297
390,442,4423680,11.14819043010834
391,443,4423680,9.502418738131858
392,444,4423680,10.190580402907198
393,446,4423680,10.322123001752368
394,448,4456448,10.803274595220953
395,449,4456448,10.096464100664496
396,450,4456448,10.65623468140918
397,452,4456448,9.938067266994038
398,453,4456448,8.985208961723954
399,454,4456448,10.899611850424225
400,456,4456448,10.779859943638805
401,458,4456448,11.04738295562155
402,460,4456448,10.22763847004769
403,462,4456448,10.243412901817011
404,464,4456448,11.014181557549245
405,465,4456448,8.833132810719206
406,466,4456448,10.776549335964328
407,468,4456448,11.061394995569433
408,469,4456448,9.549197206669195
409,470,4456448,10.534566024712136
410,471,4456448,9.613758200319708
411,472,4456448,10.38077978467172
412,474,4456448,10.363013157099205
413,476,4456448,11.001130612950208
414,477,4456448,9.495845985020402
415,478,4456448,9.921075714063091
416,479,4456448,9.179316481560821
417,480,4456448,10.862232188558753
418,481,4456448,9.633043030904346
419,482,4456448,10.779025583099722
420,483,4456448,8.865165946543808
421,484,4456448,10.538551946101766
422,485,4456448,9.55837292352569
423,486,4456448,10.442222076424883
424,488,4456448,10.432077755175134
425,490,4456448,11.134745358282384
426,491,4456448,9.242042086882224
427,492,4456448,10.696313791001215
428,494,4456448,10.527398959177358
429,495,4456448,8.5173014183245
430,496,4456448,10.6603132228657
431,497,4456448,8.873621351896507
432,498,4456448,10.277406737758755
433,499,4456448,9.855844020850888
434,500,4456448,11.020282601276998
435,501,4456448,9.663771007264447
436,502,4456448,11.146330909700286
437,503,4456448,9.201757573755327
438,504,4456448,11.317417064319436
439,506,4456448,10.925237310739782
440,508,4456448,10.697135395413369
441,509,4456448,9.44693100999502
442,510,4456448,10.529811777270558
443,511,4456448,9.46167303609342
444,512,4489216,10.217346576477336
445,513,4489216,9.050108862188534
446,514,4489216,11.032373013395985
447,515,4489216,9.049525068941605
448,516,4489216,10.60082460009729
449,517,4489216,8.560573296262818
450,518,4489216,10.453992073139494
451,519,4489216,8.726599783449222
452,520,4489216,10.747747726179048
453,522,4489216,10.24046717459738
454,524,4489216,11.032400125825731
455,525,4489216,8.633755223949489
456,526,4489216,10.530847400373453
457,528,4489216,10.322528426401774
458,530,4489216,10.47895556286954
459,531,4489216,9.942342063008693
460,532,4489216,11.01421056763759
461,533,4489216,9.709247023455495
462,534,4489216,9.937434144700143
463,535,4489216,9.597714960084492
464,536,4489216,10.724741689262634
465,537,4489216,8.791644716356295
466,538,4489216,10.68230187889056
467,539,4489216,9.36152429729386
468,540,4489216,10.86924604135393
469,541,4489216,9.341595881488757
470,542,4489216,10.904677927895102
471,544,4489216,10.755137732928928
472,546,4489216,11.054976716467896
473,547,4489216,9.826132446127412
474,548,4489216,10.081601121072206
475,550,4489216,11.149813599187338
476,551,4489216,8.986375956345409
477,552,4489216,10.909766067375317
478,553,4489216,9.792545023035041
479,554,4489216,10.501704193227674
480,555,4489216,9.446585904242447
481,556,4489216,10.196553008622022
482,557,4489216,8.86940922184508
483,558,4489216,10.75926201101519
484,559,4489216,8.341833331165441
485,560,4489216,11.109225979836575
486,561,4489216,8.797140527998996
487,562,4489216,10.229243427873518
488,564,4489216,11.01680540285849
489,565,4489216,9.64056530637226
490,566,4489216,11.096073182608007
491,567,4489216,9.50992255156168
492,568,4489216,10.938715438953015
493,570,4489216,10.22407153089507
494,571,4489216,8.889078978112018
495,572,4489216,10.61044590563799
496,573,4489216,9.305077438397506
497,574,4489216,10.839013743082583
498,576,4521984,9.85164528722811
499,577,4521984,9.03980968754373
500,578,4521984,10.840290929314916
501,580,4521984,10.438583653240197
502,581,4521984,9.576741270352235
503,582,4521984,10.951102500454077
504,583,4521984,9.176494939922359
505,584,4521984,10.268764632814293
506,585,4521984,9.039231442724013
507,586,4521984,11.025410711412144
508,587,4521984,9.09211986681465
509,588,4521984,10.611697783785306
510,590,4521984,10.564889491145273
511,592,4521984,11.059034715513762
512,593,4521984,9.193210580564891
513,594,4521984,10.412432331614808
514,595,4521984,9.280700098102395
515,596,4521984,10.89876309928948
516,597,4521984,9.877101512586687
517,598,4521984,10.555444289605814
518,599,4521984,9.439915829554849
519,600,4521984,11.259808169241342
520,602,4521984,10.223470204424912
521,603,4521984,9.015029754488094
522,604,4521984,10.488119066781397
523,606,4521984,10.818738830127016
524,607,4521984,9.443089626138365
525,608,4521984,10.305412297713977
526,609,4521984,9.750425315833393
527,610,4521984,10.997952165305497
528,611,4521984,9.24550144039779
529,612,4521984,10.607714899646252
530,614,4521984,10.204275791725527
531,616,4521984,10.672557599444893
532,617,4521984,9.23585206244945
533,618,4521984,9.238248363075478
534,619,4521984,9.453809551684632
535,620,4521984,10.53972338372467
536,622,4521984,10.522457451610952
537,623,4521984,9.056611028996478
538,624,4521984,11.015956384258965
539,625,4521984,9.100903250736609
540,626,4521984,11.280453215389565
541,627,4521984,9.68431422519858
542,628,4521984,10.874467036204264
543,629,4521984,9.05081041267198
544,630,4521984,10.770936946207055
545,631,4521984,9.804503322745358
546,632,4521984,9.637462197016681
547,634,4521984,10.913097935867826
548,635,4521984,9.058915210096659
549,636,4521984,10.530298584622264
550,637,4521984,8.818273117822452
551,638,4521984,11.200071331976044
552,639,4521984,8.085135599038791
553,640,4554752,10.30724737382835
554,641,4554752,9.576109512085898
555,642,4554752,10.419602272077377
556,644,4554752,10.533654024051804
557,646,4554752,11.27051196397199
558,647,4554752,9.872147108419634
559,648,4554752,11.045009348151346
560,649,4554752,9.676960992606443
561,650,4554752,11.042438729917063
562,651,4554752,9.70200547431651
563,652,4554752,11.01935689902526
564,653,4554752,9.854376619948681
565,654,4554752,10.52508596147447
566,655,4554752,8.867216184962096
567,656,4554752,10.76208703706329
568,658,4554752,11.197832591277754
569,659,4554752,9.636994532744291
570,660,4554752,11.27051196397199
