idx,og Index,data (B),bandwidth (GB/s)
0,1,168837120,12.350847295451878
1,3,168837120,12.356806005375493
2,5,168837120,12.358861068045167
3,7,168837120,12.357847923562142
4,9,168837120,12.351079497933661
5,11,168837120,12.350991856282448
6,13,168837120,12.357501502445743
7,15,168837120,12.352004780521016
8,17,168837120,12.358861972712685
9,19,168837120,12.358745271696469
10,21,168837120,12.351483388419958
11,23,168837120,12.349893278834099
12,25,168837120,12.351107507383432
13,27,168837120,12.351252074305417
14,28,168919040,11.649576914230778
15,29,168919040,12.350450634620238
16,31,168919040,12.351144176371715
17,33,168919040,12.351230874567463
18,35,168919040,12.350479530638166
19,37,168919040,12.350104795899322
20,39,168919040,12.350363947377733
21,41,168919040,12.350074998691289
22,43,168919040,12.350306156558787
23,45,168919040,12.350595116062037
24,47,168919040,12.349699385611393
25,49,168919040,12.359299130395591
26,51,168919040,12.351838699220854
27,53,168919040,12.351809796842579
28,55,168919040,12.350912987133393
29,57,168919040,12.351606580814275
30,59,168919040,12.348688233180116
31,61,168919040,12.350826293400328
32,63,168919040,12.35068180654973
33,65,168919040,12.350855191176123
34,67,168919040,12.351404274610452
35,69,168919040,12.350912987133393
36,71,168919040,12.350710703649403
37,73,168919040,12.351116180339313
38,75,168919040,12.349641601011607
39,76,168919040,12.144306993031075
40,79,168919040,12.351057479393095
41,81,168919040,12.35117307563506
42,83,168919040,12.352011213104262
43,85,168919040,12.350884089087144
44,87,168919040,12.349641601011607
45,89,168919040,12.35068180654973
46,91,168919040,12.350855191176123
47,92,169000960,11.59552327520487
48,93,169000960,12.349996623866256
49,94,169000960,11.592952485285094
50,95,169000960,12.350284526284874
51,96,169000960,11.565457173081626
52,97,169000960,12.351383010849569
53,98,169000960,11.52691150233272
54,99,169000960,12.350978615827112
55,100,169000960,11.579785536738168
56,101,169000960,12.350458718278137
57,102,169000960,11.51474679794766
58,103,169000960,12.349938864496071
59,104,169000960,11.567939767106525
60,105,169000960,12.351354124612616
61,106,169000960,11.512814780026783
62,107,169000960,12.351672783389798
63,108,169000960,11.591807450883424
64,109,169000960,12.350603129873528
65,110,169000960,11.515576125089245
66,111,169000960,12.353000855787649
67,112,169000960,11.541471549751314
68,113,169000960,12.350949731481647
69,114,169000960,11.501180701781728
70,115,169000960,12.344367625743105
71,116,169000960,11.527263733701803
72,117,169000960,12.350400954585568
73,118,169000960,11.504413381040752
74,119,169000960,12.350891963196013
75,120,169000960,11.536732508723324
76,121,169000960,12.350776428245904
77,122,169000960,11.518162949319962
78,123,169000960,12.351614105609356
79,124,169000960,11.534564799247159
80,125,169000960,12.350429836364311
81,126,169000960,11.513843069390541
82,127,169000960,12.350285428821397
83,128,169000960,11.543969877650325
84,129,169000960,12.349824249845609
85,130,169000960,11.52854625789266
86,131,169000960,12.34947680898347
87,132,169000960,11.537185366016834
88,133,169000960,12.344684120684745
89,134,169000960,11.515174392578
90,135,169000960,12.351440783728815
91,136,169000960,11.580928197214002
92,137,169000960,12.350891963196013
93,138,169000960,11.6135763172899
94,139,169000960,12.350718661581414
95,140,169000960,11.565660585376502
96,141,169000960,12.350082361427566
97,142,169000960,11.583112575768718
98,143,169000960,12.350285428821397
99,144,169000960,11.572781356341444
100,145,169000960,12.349130290037772
101,146,169000960,11.55442506669737
102,147,169000960,12.350776428245904
103,148,169000960,11.578135425186796
104,149,169000960,12.34982334737649
105,150,169000960,11.569562420412645
106,151,169000960,12.350141024655418
107,152,169000960,11.57445610124811
108,153,169000960,12.351758544225623
109,154,169000960,11.570779115012959
110,155,169000960,12.351556331108702
111,156,168263680,11.655930228321282
112,157,168263680,12.348937255765954
113,158,168263680,11.645346399607003
114,159,168263680,12.35755667966926
115,160,168263680,11.644031218552426
116,161,168263680,12.357847105355503
117,162,168263680,11.665782704486105
118,163,168263680,12.357150106641063
119,164,168263680,11.683460550609054
120,165,168263680,12.358282769481571
121,166,168263680,11.676845341532623
122,167,168263680,12.351257802681044
123,168,168263680,11.659884734172778
124,169,168263680,12.358195634198946
125,170,168263680,11.651306311655587
126,171,168263680,12.350300471409158
127,172,168263680,11.762732708406094
128,173,168263680,12.351634973932645
129,174,168263680,11.620562738961846
130,175,168263680,12.358689417047803
131,176,168345600,11.650395940421218
132,177,168345600,12.357009841090646
133,178,168345600,11.63174621775267
134,179,168345600,12.356893741442251
135,180,168345600,11.689096756032905
136,181,168345600,12.352047620937851
137,182,168345600,11.668951881696263
138,183,168345600,12.351671514283337
139,184,168345600,11.654113216836691
140,185,168345600,12.35787975083338
141,186,168345600,11.639210042380691
142,187,168345600,12.35085865839097
143,188,168345600,11.670660399169895
144,189,168345600,12.350482624137149
145,190,168345600,11.654139033947349
146,191,168345600,12.351902613249583
147,192,168345600,11.683619172490816
148,193,168345600,12.357938716822638
149,194,168345600,11.649803363341501
150,195,168345600,12.358112896569251
151,196,168345600,11.672368607711771
152,197,168345600,12.350278759716424
153,198,168345600,11.63843756165906
154,199,168345600,12.351120536734227
155,200,168345600,11.666026236944676
156,201,168345600,12.358751597649904
157,202,168345600,11.655533327803704
158,203,168345600,12.357531409393658
159,204,168345600,11.686136665634196
160,205,168345600,12.35787975083338
161,206,168345600,11.643022448555307
162,207,168345600,12.359012903484414
163,208,168345600,11.659330596337538
164,209,168345600,12.358083866270512
165,210,168345600,11.65189337314899
166,211,168345600,12.358257142888604
167,212,168345600,11.670814934652126
168,213,168345600,12.357677456408593
169,214,168345600,11.650396746689601
170,215,168345600,12.358229019128117
171,216,168345600,11.670453279496948
172,217,168345600,12.358751597649904
173,218,168345600,11.674648076618206
174,219,168345600,12.357706484797973
175,220,168345600,11.697049681694358
176,221,168345600,12.359621752651185
177,222,168345600,11.649390610574118
178,223,168345600,12.357735513323727
179,224,168345600,11.654577942329965
180,225,168345600,12.357996776192627
181,226,168345600,11.693150649155262
182,227,168345600,12.35872256435036
183,228,168345600,11.691123757130226
184,229,168345600,12.358025806082201
185,230,168345600,11.671695298600067
186,231,168345600,12.35927422036894
187,232,168345600,11.677083947491633
188,233,168345600,12.358692623903078
189,234,168345600,11.65839961689366
190,235,168345600,12.350859564525262
191,236,168345600,11.674492630002185
192,237,168345600,12.350366647108046
193,238,168345600,11.617875032012964
194,239,168345600,12.357531409393658
195,240,168427520,11.649331894788308
196,241,168427520,12.358059256456949
197,242,168427520,11.650543837243317
198,243,168427520,12.358377533851396
199,244,168427520,11.697123991617783
200,245,168427520,12.35863869677876
201,246,168427520,11.664047763257965
202,247,168427520,12.349881254469594
203,248,168427520,11.656452442835446
204,249,168427520,12.357332992510582
205,250,168427520,11.67382669140596
206,251,168427520,12.35718793128912
207,252,168427520,11.65345868856218
208,253,168427520,12.357710167625786
209,254,168427520,11.64283892303364
210,255,168427520,12.358899870744388
211,256,168427520,11.678229969457128
212,257,168427520,12.358522623003891
213,258,168427520,11.655832919205958
214,259,168427520,12.351157306473809
215,260,168427520,11.660455926870702
216,261,168427520,12.35808736576625
217,262,168427520,11.650440683387298
218,263,168427520,12.357739182049869
219,264,168427520,11.689642129138335
220,265,168427520,12.358320405932375
221,266,168427520,11.653485296520978
222,267,168427520,12.351764180280478
223,268,168427520,11.686007757991517
224,269,168427520,12.35730397999383
225,270,168427520,11.650311743635967
226,271,168427520,12.350257974825576
227,272,168427520,11.683932452099022
228,273,168427520,12.351011484490536
229,274,168427520,11.653948939549759
230,275,168427520,12.358928890755307
231,276,168427520,11.659344424099306
232,277,168427520,12.357478057137834
233,278,168427520,11.670151203540605
234,279,168427520,12.358174414761056
235,280,168427520,11.685256185131928
236,281,168427520,12.350895553942118
237,282,168427520,11.656530694644783
238,283,168427520,12.357071884764041
239,284,168427520,11.681210541610287
240,285,168427520,12.358116381961596
241,286,168427520,11.657252758334318
242,287,168427520,12.358580659618779
243,288,168427520,11.665133501706752
244,289,168427520,12.35739101795278
245,290,168427520,11.665004236530402
246,291,168427520,12.349533533000386
247,292,168427520,11.673774907896906
248,293,168427520,12.358088272520293
249,294,168427520,11.671936890918348
250,295,168427520,12.350895553942118
251,296,168427520,11.674033020886798
252,297,168427520,12.357565097549017
253,298,168427520,11.989340911105092
254,299,168427520,12.349359679608474
255,300,168427520,11.633496702919164
256,301,168427520,12.35718793128912
257,302,168427520,11.647501566173935
258,303,168427520,12.357536990615529
259,304,168509440,11.65326984535767
260,305,168509440,12.357425663431917
261,306,168509440,11.683468540816529
262,307,168509440,12.358845867275779
263,308,168509440,11.643195368852004
264,309,168509440,12.357454662415451
265,310,168509440,11.640648109450503
266,311,168509440,12.350613769129462
267,312,168509440,11.655900837566172
268,313,168509440,12.358613826981324
269,314,168509440,11.636763012055356
270,315,168509440,12.357888757217317
271,316,168509440,11.664085944753953
272,317,168509440,12.357859756196387
273,318,168509440,11.658766132994923
274,319,168509440,12.350439969853422
275,320,168509440,11.676862965102895
276,321,168509440,12.35806276620141
277,322,168509440,11.645564266471798
278,323,168509440,12.35806276620141
279,324,168509440,11.661322135769494
280,325,168509440,12.349831710905537
281,326,168509440,11.63712303617285
282,327,168509440,12.358555818269148
283,328,168509440,11.679296581165836
284,329,168509440,12.358845867275779
285,330,168509440,11.649558330184327
286,331,168509440,12.350758605596113
287,332,168509440,11.658842764508929
288,333,168509440,12.35771475313346
289,334,168509440,11.636763012055356
290,335,168509440,12.357453756195156
291,336,168509440,11.694782309485317
292,337,168509440,12.358526814117267
293,338,168509440,11.63812688176588
294,339,168509440,12.350874477215307
295,340,168509440,11.678416736583083
296,341,168509440,12.356960792056613
297,342,168509440,11.638177520679399
298,343,168509440,12.358381795399932
299,344,168509440,11.667858429513915
300,345,168509440,12.357569753473328
301,346,168509440,11.648655581961536
302,347,168509440,12.358730752446855
303,348,168509440,11.689408518541693
304,349,168509440,12.357482755310542
305,350,168509440,11.682950122837433
306,351,168509440,12.357250766198293
307,352,168509440,11.658972637059286
308,353,168509440,12.357453756195156
309,354,168509440,11.662897604665009
310,355,168509440,12.350875382470889
311,356,168509440,11.680592711468924
312,357,168509440,12.351685639430002
313,358,168509440,11.657190973592096
314,359,168509440,12.351569752590294
315,360,168509440,11.793076347318484
316,361,168509440,12.351077257780542
317,362,168509440,11.571530438355833
318,363,168509440,12.351366955853264
319,364,168509440,11.624124867976999
320,365,168509440,12.358178774913261
321,366,168509440,11.647599197943556
322,367,168509440,12.357685752929212
323,368,168591360,11.658573823334788
324,369,168591360,12.351866894267216
325,370,168591360,11.640850985673632
326,371,168591360,12.35033227099893
327,372,168591360,11.701845842144005
328,373,168591360,12.349145371173464
329,374,168591360,11.647902748431028
330,375,168591360,12.35033227099893
331,376,168591360,11.675057765412385
332,377,168591360,12.357603390466844
333,378,168591360,11.63419311390231
334,379,168591360,12.351056102382755
335,380,168591360,11.676662059943547
336,381,168591360,12.35829908543167
337,382,168591360,11.641674108812142
338,383,168591360,12.35039017438751
339,384,168591360,11.669626330628809
340,385,168591360,12.358328074421767
341,386,168591360,11.654988843198284
342,387,168591360,12.350766559648065
343,388,168591360,11.6659570550377
344,389,168591360,12.351403571584777
345,390,168591360,11.626490806636378
346,391,168591360,12.351635228581069
347,392,168591360,11.667894765144593
348,393,168591360,12.357255572356062
349,394,168591360,11.634321572152052
350,395,168591360,12.349608524450145
351,396,168591360,11.666061190588785
352,397,168591360,12.358443125817157
353,398,168591360,11.65246343351141
354,399,168591360,12.350563887810988
355,400,168591360,11.676894978054484
356,401,168591360,12.350100662873981
357,402,168591360,11.64986022560841
358,403,168591360,12.35050598279353
359,404,168591360,11.659580077307115
360,405,168591360,12.358618877753507
361,406,168591360,11.649525347342594
362,407,168591360,12.35783528008534
363,408,168591360,11.666991227716878
364,409,168591360,12.358183130831266
365,410,168591360,11.675031084805166
366,411,168591360,12.358849899500393
367,412,168591360,11.684404284196185
368,413,168591360,12.351171923277855
369,414,168591360,11.655118566836405
370,415,168591360,12.351229834539984
371,416,168591360,11.656948702994281
372,417,168591360,12.358415042208057
373,418,168591360,11.651071099985895
374,419,168591360,12.357400494189415
375,420,168591360,11.661644731713434
376,421,168591360,12.350274368153295
377,422,168591360,12.07103804791431
378,423,168591360,12.35198273036914
379,424,168591360,11.665053010557829
380,425,168591360,12.350708652730162
381,426,168591360,11.622258883159498
382,427,168591360,12.357226588397289
383,428,168591360,11.661773796892538
384,429,168591360,12.358415042208057
385,430,168591360,11.637662482622858
386,431,168591360,12.35789325384978
387,432,168673280,11.690522599239115
388,433,168673280,12.350165900644711
389,434,168673280,11.688682800389564
390,435,168673280,12.350165900644711
391,436,168673280,11.72646628729096
392,437,168673280,12.3501957417072
393,438,168673280,11.673875348108927
394,439,168673280,12.357723910796654
395,440,168673280,11.724354368479554
396,441,168673280,12.350774505984118
397,442,168673280,11.679281411684483
398,443,168673280,12.357868773224586
399,444,168673280,11.706023040158922
400,445,168673280,12.357608023299576
401,446,168673280,11.696282295208785
402,447,168673280,12.34976079988168
403,448,168673280,11.708728160578401
404,449,168673280,12.357231403944523
405,450,168673280,11.699890973314613
406,451,168673280,12.350628905489176
407,452,168673280,11.709871854130894
408,453,168673280,12.358506208257332
409,454,168673280,11.662794355889815
410,455,168673280,12.347736598552048
411,456,168673280,11.694594736820575
412,457,168673280,12.358332355817803
413,458,168673280,11.680367593070471
414,459,168673280,12.357550080366105
415,460,168673280,11.71354098451276
416,461,168673280,12.350485117065194
417,462,168673280,11.705373152433653
418,463,168673280,12.350832385395298
419,464,168673280,11.707531057635858
420,465,168673280,12.356999649597558
421,466,168673280,11.679721359549356
422,467,168673280,12.350948145845114
423,468,168673280,11.71291628931028
424,469,168673280,12.358042612621253
425,470,168673280,11.694543655429575
426,471,168673280,12.356709968887952
427,472,168673280,11.713645106858284
428,473,168673280,12.350890265348962
429,474,168673280,11.70875335682119
430,475,168673280,12.358622112601147
431,476,168673280,11.722033846949088
432,477,168673280,12.350398303033941
433,478,168673280,11.703631809113016
434,479,168673280,12.349645965883951
435,480,168673280,11.707375037810332
436,481,168673280,12.357434196129262
437,482,168673280,11.694983943023718
438,483,168673280,12.349038375865439
439,484,168673280,12.046790375210906
440,485,168673280,12.351063908464925
441,486,168673280,11.646275780960922
442,487,168673280,12.357347284377934
443,488,168673280,11.680160531741311
444,489,168673280,12.357665966776423
445,490,168673280,11.675142349244636
446,491,168673280,12.356999649597558
447,492,168673280,11.683604689421095
448,493,168673280,12.359346564008
449,494,168673280,11.682568882319817
450,495,168673280,12.358041707195058
451,496,168755200,11.667684172608649
452,497,168755200,12.350290729692704
453,498,168755200,11.650490530945683
454,499,168755200,12.358336633060105
455,500,168755200,11.738768657458747
456,501,168755200,12.349219758259855
457,502,168755200,11.671091862529217
458,503,168755200,12.35755383187332
459,504,168755200,11.699834009603343
460,505,168755200,12.351533650908621
461,506,168755200,11.660691854689386
462,507,168755200,12.358626249381997
463,508,168755200,11.700664688211681
464,509,168755200,12.351215439253508
465,510,168755200,11.661749073014535
466,511,168755200,12.350232883452303
467,512,168755200,11.705104815203418
468,513,168755200,12.351216343240667
469,514,168755200,11.631038304395053
470,515,168755200,12.351621342797616
471,516,168755200,11.683607548672581
472,517,168755200,12.357786399443048
473,518,168755200,11.659969962079145
474,519,168755200,12.349712291672262
475,520,168755200,11.68448770206617
476,521,168755200,12.358539363060142
477,522,168755200,11.679674366178311
478,523,168755200,12.358249750810439
479,524,168755200,11.709653939214371
480,525,168755200,12.352026368915515
481,526,168755200,11.659969962079145
482,527,168755200,12.358278711424592
483,528,168755200,11.704871809419624
484,529,168755200,12.358510401224345
485,530,168755200,11.690833906599524
486,531,168755200,12.358452477959974
487,532,168755200,11.6887082938094
488,533,168755200,12.35118741571718
489,534,168755200,11.699651503253165
490,535,168755200,12.35060889370131
491,536,168755200,11.683452241249796
492,537,168755200,12.350232883452303
493,538,168755200,11.685729688144319
494,539,168755200,12.350059347982333
495,540,168755200,11.69672001500461
496,541,168755200,12.35816286978237
497,542,168755200,11.678846665170898
498,543,168755200,12.358075084984321
499,544,168755200,11.701313737952178
500,545,168755200,12.358220790332016
501,546,168755200,11.699470624799728
502,547,168755200,12.350319653016111
503,548,168755200,11.633629784704167
504,549,168755200,12.357786399443048
505,550,168755200,11.690004623211069
506,551,168755200,12.35839365020035
507,552,168755200,11.65723789240594
508,553,168755200,12.358481439524288
509,554,168755200,11.692829852014562
510,555,168755200,12.359002770894584
511,556,168755200,11.638611522980739
512,557,168755200,12.357757441136231
513,558,168755200,11.67029120334733
514,559,168755200,12.358191829989329
515,560,168837120,11.68032473018882
516,561,168837120,12.35857158124194
517,562,168837120,11.667617331558514
518,563,168837120,12.350876207347273
519,564,168837120,11.72781176721633
520,565,168837120,12.35237981245484
521,566,168837120,11.66338659984997
522,567,168837120,12.358601433941365
523,568,168837120,11.67316650413328
524,569,168837120,12.351714711198758
525,570,168837120,11.660499632339915
526,571,168837120,12.357790939119567
527,572,168837120,11.68521390348239
528,573,168837120,12.350731649223874
529,574,168837120,11.684075317758776
530,575,168837120,12.350819287182295
531,576,168837120,11.684179624973236
532,577,168837120,12.35773305070014
533,578,168837120,11.658618717374006
534,579,168837120,12.358659330496785
535,580,168837120,11.689201510898684
536,581,168837120,12.350558183942479
537,582,168837120,11.686715914513579
538,583,168837120,12.35000890936238
539,584,168837120,11.676886652663477
540,585,168837120,12.35787777276561
541,586,168837120,11.663051432074312
542,587,168837120,12.353044985342033
543,588,168837120,11.678566663210441
544,589,168837120,12.357761994842061
545,590,168837120,11.670068190607454
