idx,og Index,data (B),bandwidth (GB/s)
0,0,16801792,12.11016770793391
1,1,16801792,12.101236211103716
2,3,16801792,12.00906873886778
3,4,16801792,12.182945115885156
4,5,16801792,12.011266510155586
5,6,16801792,12.323341733826606
6,7,16801792,12.083412682202743
7,9,16801792,12.009343416293797
8,11,16801792,12.036874758213575
9,12,16801792,12.325945401885669
10,13,16801792,12.028051004951019
11,14,16801792,12.270924807702983
12,15,16801792,12.050964404674128
13,17,16801792,12.073965270931005
14,19,16801792,11.88591866937184
15,20,16801792,12.33145469958129
16,21,16801792,12.007970154800532
17,22,16801792,12.264332409713484
18,23,16801792,11.93563401292889
19,25,16801792,12.024745431799769
20,27,16801792,11.975652104496378
21,28,16801792,12.331744322681457
22,29,16801792,12.012649114340357
23,30,16801792,12.321317419017978
24,31,16801792,12.010442251660553
25,33,16801792,12.067582747495525
26,35,16801792,12.060375841623957
27,36,16801792,12.33145469958129
28,37,16801792,11.947856015246114
29,38,16801792,12.324218540836124
30,39,16801792,12.107375199245963
31,41,16801792,12.107383923829618
32,43,16801792,11.991241617731442
33,44,16801792,12.329427718734108
34,45,16801792,11.888879139789816
35,46,16801792,12.323350772437658
36,47,16801792,11.93075221050419
37,49,16801792,12.193139042839073
38,51,16801792,11.94568138577876
39,52,16801792,12.32999773974151
40,53,16801792,11.942412436980286
41,54,16801792,12.198229122198699
42,55,16801792,12.113808629447114
43,57,16801792,12.222943072622
44,59,16801792,11.979750676641123
45,60,16801792,12.326243809107389
46,61,16801792,12.047922672058972
47,62,16801792,12.246311192226171
48,63,16801792,11.804681462163005
49,65,16801792,12.203332316497436
50,67,16801792,11.99507683169561
51,68,16801792,12.33028729440705
52,69,16801792,11.968563077929119
53,70,16801792,12.32277232805882
54,71,16801792,11.98796479624417
55,73,16801792,12.124438312313869
56,75,16801792,11.980579270531845
57,76,16801792,12.329129157335196
58,77,16801792,11.867918504349694
59,78,16801792,12.324507824127492
60,79,16801792,11.9595582268714
61,81,16801792,12.182388610101459
62,83,16801792,11.971556335840441
63,84,16801792,12.328550170380002
64,85,16801792,12.052079515156384
65,86,16801792,12.325656051104936
66,87,16801792,11.940519812042151
67,89,16801792,12.090647154827252
68,91,16801792,12.002205884453943
69,92,16801792,12.30341676308197
70,93,16801792,12.00385225405444
71,94,16801792,12.330006788118958
72,95,16801792,12.100957314104466
73,97,16801792,12.031909804674186
74,99,16801792,11.944050933100543
75,100,16801792,12.327111985003613
76,101,16801792,12.101802760213229
77,102,16801792,12.320459093472246
78,103,16801792,11.940528297810497
79,105,16801792,12.144910921519715
80,107,16801792,11.885388967998466
81,108,16801792,12.070634416605122
82,109,16801792,12.033288547536447
83,110,16801792,11.957651653823051
84,111,16801792,12.248034145043539
85,113,16801792,12.085081407359029
86,115,16801792,11.94432264430473
87,116,16801792,11.993432868209085
88,117,16801792,11.932107866113304
89,118,16801792,12.316413022044761
90,119,16801792,12.099292914963284
91,121,16801792,12.205601773691598
92,123,16801792,11.917483069048775
93,124,16801792,12.329717246627485
94,125,16801792,12.003029012799008
95,126,16801792,12.331156040007398
96,127,16801792,12.099850568380269
97,129,16801792,12.075362348005012
98,131,16801792,11.95465683833051
99,132,16801792,12.327111985003613
100,133,16801792,12.014573267136281
101,134,16801792,12.286151985427837
102,135,16801792,11.9737403970867
103,137,16801792,12.124718292733089
104,139,16801792,11.945137852095153
105,140,16801792,12.331744322681457
106,141,16801792,12.086194146877634
107,142,16801792,12.325375755490626
108,143,16801792,11.988785972333119
109,145,16801792,12.178432701402908
110,147,16801792,12.01813973316853
111,148,16801792,12.325665093111201
112,149,16801792,11.91342698557211
113,150,16801792,12.322483126232575
114,151,16801792,11.967190602768685
115,153,16801792,12.140698579328474
116,154,16801792,12.320459093472246
117,155,16801792,11.971556335840441
118,156,16801792,12.321904763301655
119,157,16801792,11.990154849179225
120,158,16801792,12.319013762830021
121,159,16801792,11.936990778237208
122,161,16801792,12.204475804664954
123,163,16801792,11.918032542689316
124,164,16801792,12.333772065370828
125,165,16801792,12.020074244658256
126,166,16801792,12.32277232805882
127,167,16801792,11.940519812042151
128,169,16801792,12.062592434115116
129,171,16801792,11.964199527322107
130,172,16801792,12.327980283205138
131,173,16801792,11.985493392988094
132,174,16801792,12.320170000212647
133,175,16801792,11.95737933586689
134,177,16801792,12.093710501691499
135,179,16809984,12.065147552373269
136,180,16809984,12.336308189305637
137,181,16809984,12.0687510230807
138,182,16809984,12.324441788768691
139,183,16809984,12.00449044067448
140,185,16809984,12.07958304200264
141,186,16809984,12.259144411545922
142,187,16809984,11.796380662057583
143,188,16809984,12.322418099091102
144,189,16809984,11.84639280167104
145,190,16809984,12.316928575667852
146,191,16809984,12.073475174656163
147,193,16809984,12.148013678633061
148,195,16809984,12.019597468231337
149,196,16809984,12.321840024101277
150,197,16809984,12.07958304200264
151,198,16809984,12.326176909037715
152,199,16809984,12.009430376672105
153,201,16809984,12.189742477848512
154,203,16809984,11.876666249817188
155,204,16809984,12.329069862106447
156,205,16809984,12.079852138444867
157,206,16809984,12.327912517940026
158,207,16809984,11.898447608558397
159,209,16809984,12.180415235895232
160,211,16809984,12.061001028163648
161,212,16809984,12.332543198790368
162,213,16809984,12.053252337695023
163,214,16809984,12.13454414206309
164,215,16809984,12.015757025579076
165,217,16809984,12.21071013228403
166,219,16809984,11.964844250463363
167,220,16809984,12.19652605459057
168,221,16809984,12.148022457602927
169,222,16809984,12.32704465239681
170,223,16809984,12.039155582420667
171,225,16809984,12.164611007065757
172,227,16809984,12.07263409182967
173,228,16809984,12.330227423596162
174,229,16809984,12.005039121753066
175,230,16809984,12.32820183361092
176,231,16809984,12.098222401668563
177,233,16809984,12.22434049583892
178,235,16809984,11.925459070309905
179,236,16809984,12.329938012846325
180,237,16809984,11.964571737675982
181,238,16809984,12.329069862106447
182,239,16809984,12.088469559464396
183,241,16809984,12.18181870885643
184,243,16809984,12.082630608976663
185,244,16809984,12.326176909037715
186,245,16809984,12.07736128444045
187,246,16809984,12.318372712836547
188,247,16809984,12.058232495281791
189,249,16809984,12.171102256905352
190,251,16809984,12.096829418711172
191,252,16809984,12.330806285856383
192,253,16809984,12.08763507819219
193,254,16809984,12.320963982584987
194,255,16809984,11.979578398255441
195,257,16809984,12.129229450460961
196,259,16809984,12.05214619460829
197,260,16809984,12.33196417344583
198,261,16809984,12.018772468190619
199,262,16809984,12.320684036819896
200,263,16809984,11.875046977476243
201,265,16809984,12.120545100584037
202,267,16809984,12.029230844093577
203,268,16809984,12.33196417344583
204,269,16809984,11.941453434680685
205,270,16809984,12.325309287836939
206,271,16809984,12.108540454881057
207,272,16809984,12.291845694413164
208,273,16809984,11.992705916597464
209,275,16809984,12.14296787130898
210,276,16809984,12.33312227851166
211,277,16809984,11.989156257867668
212,278,16809984,12.321541975377416
213,279,16809984,12.209566033405288
214,281,16809984,12.197950945469085
215,283,16809984,12.007783279663753
216,284,16809984,12.328491162861651
217,285,16809984,12.094035713771817
218,286,16809984,12.089591075125984
219,287,16809984,12.074299029170845
220,289,16809984,12.203618401709234
221,291,16809984,11.983951043267737
222,292,16809984,12.32559848133231
223,293,16809984,12.034191166995502
224,294,16809984,12.322129054816301
225,295,16809984,12.036948669991093
226,297,16809984,12.242011915763808
227,299,16809984,11.91463978203489
228,300,16809984,12.333411838765983
229,301,16809984,12.03088383064851
230,302,16809984,12.317795017333594
231,303,16809984,12.078741107997413
232,305,16809984,12.130621151897747
233,307,16809984,12.051031615169546
234,308,16809984,12.329069862106447
235,309,16809984,12.04660989012564
236,310,16809984,12.21979070044692
237,311,16809984,11.74153784257244
238,313,16809984,12.123062543811823
239,315,16809984,11.96676070655923
240,316,16809984,12.062939757721976
241,317,16809984,12.0361299044054
242,318,16809984,12.324432752962705
243,319,16809984,12.107415420871735
244,321,16809984,12.173922867515584
245,323,16809984,12.009704936772165
246,324,16809984,12.329938012846325
247,325,16809984,12.043847959350362
248,326,16809984,12.322707156926636
249,327,16809984,12.148013678633061
250,329,16809984,12.148303391338345
251,331,16809984,12.247997038910926
252,332,16809984,12.32646614324966
253,333,16809984,11.9528739187474
254,334,16809984,12.226910138307506
255,335,16809984,12.155893516874725
256,337,16809984,12.221221032734146
257,339,16809984,12.16574669603046
258,340,16809984,12.312309611301261
259,341,16809984,12.045504965819683
260,342,16809984,12.319239357698725
261,343,16809984,12.036957289168662
262,345,16809984,12.169965567869523
263,347,16809984,12.14746062911043
264,348,16809984,12.325887688398916
265,349,16809984,11.994075021191218
266,350,16809984,12.321541975377416
267,351,16809984,12.02207314805544
268,353,16809984,12.124750165714694
269,355,16809984,12.13259108654277
270,356,16809984,12.325309287836939
271,357,16809984,12.176180297458355
272,358,16809984,12.316928575667852
273,359,16809984,12.16518322693914
274,361,16809984,12.223202729390687
275,363,16809984,12.049934517396437
276,364,16809984,12.324730941556085
277,365,16809984,12.054350039727044
278,366,16809984,12.328780505693175
279,367,16809984,12.199084015556206
280,369,16809984,12.157300136616072
281,371,16809984,12.090417130576629
282,372,16809984,12.333981950253136
283,373,16809984,11.942267853742957
284,374,16809984,12.324143614166694
285,375,16809984,12.006685465968406
286,377,16809984,12.245712903686393
287,379,16809984,11.916802068889249
288,380,16809984,12.331095737368685
289,381,16809984,11.956946416326902
290,382,16809984,12.307108405155374
291,383,16809984,12.15476845541741
292,385,16809984,12.135945824970761
293,387,16809984,11.959677138212308
294,388,16809984,12.253148391526732
295,389,16809984,12.038603778449374
296,390,16809984,11.88821530915047
297,391,16809984,11.973025410473594
298,393,16809984,12.260583971951608
299,395,16809984,12.009155829125481
300,396,16809984,12.331385202470388
301,397,16809984,12.133712046022975
302,398,16809984,12.326746351836915
303,399,16809984,11.99517052995727
304,401,16809984,12.251710576567069
305,403,16809984,11.920317459416989
306,404,16809984,12.333991000066769
307,405,16809984,12.085966461231404
308,406,16809984,12.330516847932527
309,407,16809984,11.930063220169137
310,409,16809984,12.22207406104063
311,411,16809984,11.970297114308257
312,412,16809984,12.328780505693175
313,413,16809984,12.05767894121858
314,414,16809984,12.321840024101277
315,415,16809984,12.044952579671598
316,417,16809984,12.107424141261578
317,419,16809984,12.005313481101433
318,420,16809984,12.324152649548713
319,421,16809984,12.032261666509195
320,422,16809984,12.172230344291247
321,423,16809984,12.047723651760968
322,425,16809984,12.24001520355507
323,427,16809984,12.074030180076322
324,428,16809984,12.329359232102426
325,429,16809984,12.087643770111637
326,430,16809984,12.325020107911849
327,431,16809984,12.009704936772165
328,433,16809984,12.153916008479552
329,435,16818176,11.832686522220001
330,436,16818176,12.252832044412227
331,437,16826368,11.776672256485917
332,438,16826368,11.836584700145474
333,440,16826368,12.096641612658564
334,441,16826368,12.064991496037699
335,442,16826368,12.08412307639274
336,443,16826368,12.065268332697553
337,444,16826368,12.004942851842868
338,446,16826368,12.146651767022698
339,448,16826368,12.080236401595538
340,449,16826368,11.755609397574874
341,450,16826368,11.695991503109873
342,451,16826368,11.288462686697335
343,452,16826368,11.940877414593299
344,454,16826368,12.143013950521151
345,456,16826368,12.051994487690417
346,457,16826368,12.09607637341308
347,458,16826368,12.000285273334645
348,459,16826368,11.772190085998215
349,460,16826368,12.005773719018524
350,462,16826368,11.992074827313909
351,464,16826368,12.115873780500538
352,465,16826368,12.135718592500917
353,466,16826368,12.127601546440793
354,467,16826368,11.976505892033014
355,468,16826368,11.963162852866837
356,470,16826368,12.05088965218911
357,472,16826368,12.188612958068061
358,473,16826368,12.139649814907937
359,474,16826368,11.944946260985617
360,475,16826368,11.928416885720525
361,476,16826368,12.005773719018524
362,478,16826368,11.900349307855572
363,480,16826368,12.056415856283444
364,481,16826368,12.32344339916288
365,482,16826368,11.772453648639194
366,483,16826368,11.835252610225952
367,484,16826368,11.981145026644755
368,486,16826368,12.06305399507337
369,488,16826368,12.190308387916602
370,489,16826368,11.826734329533155
371,490,16826368,12.060563836588884
372,491,16826368,11.475447267360616
373,492,16826368,12.116981838607002
374,494,16826368,12.10331542739752
375,496,16826368,12.023334448036264
376,497,16826368,12.088568054002948
377,498,16826368,11.827274676226123
378,499,16826368,11.98688922592719
379,500,16826368,11.979515803487837
380,502,16826368,12.067483483414566
381,504,16834560,11.13616307976043
382,505,16834560,10.286099746308272
383,506,16834560,11.02830946369636
384,507,16834560,12.218045003643374
385,508,16834560,12.321934788289209
386,510,16834560,12.320482908222262
387,512,16834560,12.28280894424911
388,513,16834560,12.063953884178716
389,514,16834560,12.207563738781039
390,515,16834560,11.439350491561772
391,516,16834560,12.179575110910465
392,518,16834560,12.012981637889942
393,520,16834560,12.298601933491572
394,521,16834560,12.142187396318084
395,522,16834560,11.030621832749517
396,523,16834560,10.739024984594343
397,524,16834560,11.60642337698869
398,526,16834560,12.318472484123134
399,528,16834560,12.231973987756808
400,529,16834560,12.123998582675805
401,530,16834560,11.978517086998966
402,531,16834560,12.231405198864524
403,532,16834560,12.172811439777174
404,534,16834560,12.242791036602792
405,536,16834560,12.005853675235132
406,537,16834560,12.039649278388854
407,538,16834560,11.977698912551618
408,539,16834560,12.002292865026108
409,540,16834560,12.0311137664981
410,542,16834560,11.960271111300568
411,544,16834560,11.999828925796564
412,545,16834560,11.575514413903358
413,546,16834560,12.013255959330124
414,547,16834560,11.682707821962955
415,548,16834560,11.913422854413248
416,550,16834560,11.986158775364899
417,552,16834560,12.042129599162214
418,553,16834560,12.17056735050632
419,554,16834560,12.010247680823696
420,555,16834560,11.997092401761662
421,556,16834560,12.083619251607123
422,558,16834560,12.113669267677713
423,560,16834560,12.324821528844936
424,561,16834560,12.31673305023983
425,562,16834560,12.29084393980213
426,563,16834560,12.275643713371723
427,564,16834560,12.297739450586779
428,566,16834560,12.33233338827537
429,568,16834560,12.333489871767915
430,569,16834560,12.310689409312785
431,570,16834560,12.248482996463963
432,571,16834560,12.303491622663573
433,572,16834560,12.299176989307801
434,574,16834560,12.323666670326896
435,576,16834560,12.328865238721924
436,577,16834560,12.306945509547178
437,578,16834560,12.327131895337828
438,579,16834560,12.132115597905164
439,580,16834560,12.24222124129987
440,582,16834560,12.329443128179026
441,584,16834560,12.206713976925917
442,585,16834560,12.324812505673881
443,586,16834560,12.24051217357478
444,587,16834560,12.245631901304973
445,588,16834560,12.326554222513481
446,590,16834560,12.278222233243454
447,592,16834560,12.212664795484207
448,593,16834560,12.325976603828291
449,594,16834560,12.216910067838825
450,595,16834560,12.302053075228272
451,596,16834560,12.102522221487337
452,598,16834560,11.958648349720223
453,600,16834560,12.162969995296525
454,601,16834560,12.071142367913083
455,602,16834560,12.093906049409945
456,603,16834560,12.103644705065259
457,604,16834560,12.055383888258316
458,606,16834560,12.18098515523474
459,607,16834560,12.315877032611773
460,608,16834560,11.962446812441554
461,609,16834560,12.007497838807877
462,610,16834560,11.980435121419386
463,611,16834560,11.898056399745565
464,612,16834560,12.045714089453302
465,614,16834560,12.191438468017186
466,616,16834560,11.954563659449004
467,617,16834560,12.063391969089393
468,618,16834560,12.108650556861436
469,619,16834560,12.048481465179444
470,620,16834560,11.928271202197099
471,622,16834560,12.165220074474627
472,624,16834560,12.01407899882675
473,625,16834560,12.027262984925342
474,626,16834560,12.08417437844015
475,627,16834560,12.173101911809049
476,628,16834560,12.060349891822963
477,630,16834560,12.137985135536566
478,632,16834560,11.845547196257737
479,633,16834560,11.682707821962955
480,634,16834560,12.027821539187002
481,635,16834560,11.034099437301933
482,636,16834560,12.090839881063534
483,638,16834560,12.095565729460352
484,640,16834560,11.991076440035215
485,641,16834560,12.029188067533848
486,642,16834560,12.090839881063534
487,643,16834560,11.999555217216516
488,644,16834560,11.928541668438104
489,646,16834560,12.049852692337424
490,648,16834560,11.789270817868339
491,649,16834560,11.951576215209249
492,650,16834560,12.02506364485741
493,651,16834560,12.112562354165183
494,652,16834560,11.900747925179205
495,654,16834560,12.052061110236108
496,656,16834560,11.863168672805468
497,657,16834560,12.029188067533848
498,658,16834560,11.96571184874547
499,659,16834560,12.023148468874338
500,660,16834560,11.87175210767012
501,661,16834560,12.310113276476942
502,662,16834560,12.224867926583519
503,664,16834560,11.910978409681858
504,665,16834560,11.977698912551618
505,666,16834560,11.94181802704802
506,667,16834560,12.044059444191657
507,668,16834560,11.928271202197099
508,670,16834560,12.08389680864809
509,672,16834560,11.99572460773276
510,673,16834560,12.011061738542281
511,674,16834560,12.01490215110553
512,675,16834560,11.42916111091498
513,676,16834560,12.048472842096825
514,678,16834560,12.125125053748803
515,680,16834560,12.029463129642915
516,681,16834560,11.681678264224471
517,682,16834560,12.131267565035671
518,683,16834560,12.092785371333997
519,684,16834560,12.09335002812397
520,686,16834560,12.061732463996561
521,688,16834560,12.049033368141766
522,689,16834560,12.012167319914461
523,690,16834560,12.313561875894193
524,691,16834560,12.268486837358683
525,692,16834560,12.283095727472316
526,694,16834560,12.274489102506147
527,696,16834560,12.325110277294774
528,697,16834560,12.105864180662902
529,698,16834560,12.0689356046132
530,699,16834560,11.889720402403572
531,700,16834560,12.245631901304973
532,702,16834560,12.286251227015132
533,704,16834560,11.937744824123738
534,705,16834560,12.12316041445225
535,706,16834560,12.177601597199114
536,707,16834560,11.906673569676549
537,708,16834560,12.267628572990107
538,710,16834560,12.076407241299163
539,712,16834560,12.160158566544569
540,713,16834560,12.270489921316662
541,714,16834560,12.298880469437195
542,715,16834560,12.11757558656789
543,716,16834560,12.010796086525653
544,718,16834560,11.992989955118615
545,720,16834560,12.24763643903486
546,721,16834560,12.11813383779488
547,722,16834560,12.111438216021618
548,723,16834560,11.982882572511325
549,724,16834560,12.253627233970693
550,726,16834560,12.102522221487337
551,728,16834560,12.309537197563913
552,729,16834560,12.294290728321572
553,730,16834560,12.304930506572912
554,731,16834560,12.249053374817006
555,732,16834560,11.964623305293143
556,734,16834560,12.327131895337828
557,736,16834560,12.15902557687363
558,737,16834560,12.030288391450876
559,738,16834560,12.315877032611773
560,739,16834560,12.08057563456075
561,740,16834560,12.14499052038334
