idx,og Index,data (B),bandwidth (GB/s)
0,1,33603584,12.303569924787805
1,3,33603584,12.346678326174738
2,5,33603584,12.347113839270952
3,7,33603584,12.34783976271159
4,9,33603584,12.342615018331971
5,11,33603584,12.348125618488758
6,13,33603584,12.326388496597765
7,15,33603584,12.339134311105433
8,16,33611776,12.098753149163157
9,17,33611776,12.344898458383252
10,19,33611776,12.331709493336973
11,21,33611776,12.346204394737365
12,23,33611776,12.348091235118599
13,25,33611776,12.343882921096604
14,27,33611776,12.345333739803058
15,29,33611776,12.344173057557313
16,31,33611776,12.34663976825836
17,33,33611776,12.347075172486248
18,35,33611776,12.348091235118599
19,37,33611776,12.347365459032497
20,39,33611776,12.348526741726262
21,41,33611776,12.346494640339644
22,43,33611776,12.346784899588952
23,45,33611776,12.347075172486248
24,47,33611776,12.346925498819187
25,49,33611776,12.342863018351741
26,51,33611776,12.33547489252446
27,53,33611776,12.306997408746843
28,55,33611776,12.346494640339644
29,57,33611776,12.337648284383
30,59,33611776,12.346494640339644
31,61,33611776,12.348091235118599
32,63,33611776,12.346635232959256
33,65,33611776,12.347365459032497
34,67,33611776,12.345474305984833
35,69,33611776,12.34649010514716
36,71,33611776,12.347941536816853
37,73,33611776,12.347510607424278
38,75,33611776,12.34503901465276
39,77,33611776,12.328520659359443
40,79,33611776,12.349107464991892
41,80,33619968,12.092926422637749
42,81,33619968,12.3496444055727
43,83,33619968,12.317212863403006
44,85,33619968,12.348047798229327
45,87,33619968,12.324297217462835
46,89,33619968,12.33993054102682
47,91,33619968,12.347326738782176
48,93,33619968,12.348197462630322
49,95,33619968,12.34456572385966
50,97,33619968,12.348632870608096
51,99,33619968,12.347616966420473
52,101,33619968,12.346311049481505
53,103,33619968,12.349068309292665
54,105,33619968,12.34718163007926
55,107,33619968,12.349499242389458
56,109,33619968,12.330951009913917
57,111,33619968,12.347031990301584
58,113,33619968,12.346165964650712
59,115,33619968,12.346311049481505
60,117,33619968,12.34602088322974
61,119,33619968,12.346311049481505
62,121,33619968,12.346601229373041
63,123,33619968,12.345295527268
64,125,33619968,12.34602088322974
65,127,33619968,12.344135134996208
66,129,33619968,12.349063773314757
67,131,33619968,12.347907207702868
68,133,33619968,12.346165964650712
69,135,33619968,12.330082716522988
70,137,33619968,12.344715303863143
71,139,33619968,12.34442068004531
72,141,33619968,12.347322204083582
73,143,33619968,12.343700044131891
74,144,33628160,12.15182115645558
75,145,33628160,12.343372277831001
76,147,33628160,12.344677255110124
77,149,33628160,12.346562709504694
78,151,33628160,12.316897451731455
79,153,33628160,12.344097231144213
80,155,33628160,12.346852830532283
81,157,33628160,12.347283504073946
82,159,33628160,12.344822269618621
83,161,33628160,12.34481773786366
84,163,33628160,12.2274658526697
85,165,33628160,12.347138431735829
86,167,33628160,12.345547393269234
87,169,33628160,12.325709765883003
88,171,33628160,12.344672723461631
89,173,33628160,12.346558176471818
90,175,33628160,12.349609660471815
91,177,33628160,12.344242232025719
92,179,33628160,12.235723207921527
93,181,33628160,12.344382704878225
94,183,33628160,12.347288037639442
95,185,33628160,12.346123020813332
96,187,33628160,12.345692428221822
97,189,33628160,12.334679475188075
98,191,33628160,12.345547393269234
99,193,33628160,12.349459998303372
100,195,33628160,12.31964091941862
101,197,33628160,12.347428579821148
102,199,33628160,12.344822269618621
103,201,33628160,12.344237700696608
104,203,33628160,12.340763150806286
105,205,33628160,12.345547393269234
106,207,33628160,12.346997896159113
107,208,33636352,12.163924122730092
108,209,33636352,12.34695475436843
109,211,33636352,12.341885284338122
110,213,33636352,12.343040159229277
111,215,33636352,12.3400017169284
112,217,33636352,12.322353135983342
113,219,33636352,12.348119644376702
114,221,33636352,12.34724935559016
115,223,33636352,12.346959286588442
116,225,33636352,12.346959286588442
117,227,33636352,12.345649613459246
118,229,33636352,12.344779672798499
119,231,33636352,12.346089161351228
120,233,33636352,12.343769426847894
121,235,33636352,12.34710431938566
122,237,33636352,12.3455091459901
123,239,33636352,12.345649613459246
124,241,33636352,12.343044688575867
125,243,33636352,12.34884044514982
126,245,33636352,12.346089161351228
127,247,33636352,12.347539438221467
128,249,33636352,12.337249844667301
129,251,33636352,12.344054815896198
130,253,33636352,12.33522293456122
131,255,33636352,12.342030197956225
132,257,33636352,12.330881797659224
133,258,33636352,12.149583224821647
134,261,33636352,12.345364150665011
135,263,33636352,12.343189629421957
136,264,33636352,12.255113257324444
137,266,33636352,12.34710431938566
138,268,33636352,12.304462387756244
139,270,33636352,12.34347952132637
140,272,33644544,11.924435375914546
141,273,33644544,12.34663071312346
142,275,33644544,12.326654732481039
143,277,33644544,12.333450883643522
144,279,33644544,12.230007964425807
145,280,33644544,12.036094821886993
146,283,33644544,12.278138923486944
147,285,33644544,12.346775702889504
148,287,33644544,12.344306810722832
149,289,33644544,12.347065692637754
150,291,33644544,12.345756315795846
151,293,33644544,12.347500702802328
152,295,33644544,12.343731632740665
153,297,33644544,12.346916164972743
154,299,33644544,12.34663071312346
155,301,33644544,12.343731632740665
156,303,33644544,12.343007075359216
157,305,33644544,12.327810995186061
158,307,33644544,12.312652286279542
159,309,33644544,12.347935743620422
160,311,33644544,12.329256628645599
161,312,33644544,12.147491939472934
162,314,33644544,12.16210137354623
163,316,33644544,12.344456275192828
164,318,33644544,12.338371921599576
165,320,33644544,12.299257099448948
166,322,33644544,12.322176262431302
167,324,33644544,12.342282603033503
168,326,33644544,12.311498865255597
169,328,33644544,11.82984205566729
170,331,33644544,12.341268484642624
171,333,33644544,12.348370815095276
172,335,33644544,12.324342857645226
173,336,33652736,12.128445108381282
174,337,33652736,12.325032101076824
175,339,33652736,12.34804190287486
176,341,33652736,12.345283256277883
177,343,33652736,12.348621873740928
178,345,33652736,12.346297787569224
179,347,33652736,12.346302317100642
180,349,33652736,12.347896918670484
181,351,33652736,12.344853036660316
182,353,33652736,12.346012433790031
183,354,33652736,12.104155614055218
184,357,33652736,12.350212542171722
185,359,33652736,12.34760696047546
186,360,33652736,12.199075628119756
187,362,33652736,12.329940707516183
188,364,33652736,12.342969480683815
189,366,33652736,12.30801100425936
190,368,33652736,12.3439791038743
191,370,33652736,12.299805777551335
192,372,33652736,12.304982253380121
193,374,33652736,12.339638443153909
194,376,33652736,12.30959572941136
195,379,33652736,12.346877594605532
196,381,33652736,12.346447263860833
197,383,33652736,12.345142865527754
198,385,33652736,12.346882124562391
199,387,33652736,12.343838742784119
200,389,33652736,12.342964953597527
201,391,33652736,12.346587684280312
202,393,33652736,12.317809518824586
203,395,33652736,12.347172048715448
204,396,33652736,12.10150920341145
205,399,33652736,12.347317015897943
206,400,33660928,12.078048017349426
207,401,33660928,12.34713342386181
208,403,33660928,12.335260649404619
209,405,33660928,12.341044868323655
210,407,33660928,12.333954411062585
211,409,33660928,12.345974098376288
212,411,33660928,12.343796423184722
213,413,33660928,12.345249630496253
214,415,33660928,12.347858112862035
215,417,33660928,12.34539451727024
216,418,33660928,12.33265748618568
217,420,33660928,12.29503471078244
218,422,33660928,12.33945242348449
219,424,33660928,11.864972858653507
220,427,33660928,12.347853583291606
221,429,33660928,12.346694122570756
222,431,33660928,12.34727835485672
223,433,33660928,12.345969570187982
224,435,33660928,12.341338972698015
225,437,33660928,12.34510474712304
226,438,33660928,12.044718093022308
227,439,33562624,11.94906734424971
228,440,33562624,12.23082232365998
229,441,33562624,11.605044411065839
230,442,33562624,12.34004384123326
231,443,33562624,11.934650451603726
232,444,33562624,12.341786330223613
233,445,33562624,11.914449862405252
234,446,33562624,12.337866421791174
235,447,33562624,12.242386130271274
236,448,33562624,12.33656033892748
237,449,33562624,12.299808957416158
238,450,33562624,12.22981955138728
239,451,33562624,12.042498515436767
240,452,33562624,12.343815316241404
241,453,33562624,12.01903414055584
242,454,33562624,12.341205445884956
243,455,33562624,12.338301844203988
244,456,33562624,12.313242598140537
245,457,33562624,11.968019786339767
246,458,33562624,12.34541809661484
247,459,33562624,12.114830663718811
248,460,33562624,12.34541355557264
249,461,33562624,12.00047340240098
250,462,33562624,12.344836870365071
251,463,33562624,12.128700165907357
252,464,33562624,12.345999377598398
253,465,33562624,12.116510125845174
254,466,33562624,12.338156699984928
255,467,33562624,12.140212104320977
256,468,33562624,12.344110414510478
257,469,33562624,12.135019376187284
258,470,33562624,12.339317949362751
259,471,33562624,12.119310264390466
260,472,33562624,12.338297308395452
261,473,33562624,12.1633016650751
262,474,33562624,12.344110414510478
263,475,33562624,12.175303406533013
264,476,33562624,12.34541809661484
265,477,33562624,12.159494297331461
266,478,33562624,12.343384044150259
267,479,33562624,12.154703223533085
268,480,33562624,12.344691572353877
269,481,33562624,12.085376001889722
270,482,33562624,12.346726055809018
271,483,33562624,12.17912510205933
272,484,33562624,12.344982171796643
273,485,33562624,12.121411217785155
274,486,33562624,12.34658071332348
275,487,33562624,12.152168300889652
276,488,33562624,12.344836870365071
277,489,33562624,12.099876018413735
278,490,33562624,12.345563411729135
279,491,33562624,12.124914425966676
280,492,33562624,12.34541809661484
281,493,33562624,12.166687994165086
282,494,33562624,12.341350661843277
283,495,33562624,12.160481163778657
284,496,33562624,12.346576171425944
285,497,33562624,12.146116930167821
286,498,33562624,12.344546277762943
287,499,33562624,12.191158105796159
288,500,33562624,12.344251158654258
289,501,33562624,12.120710819055475
290,502,33562624,12.346285496934087
291,503,33570816,12.065802852377034
292,504,33570816,12.346396830101968
293,505,33570816,12.026929349150075
294,506,33570816,12.347123377755416
295,507,33570816,11.998185841198202
296,508,33570816,12.346687438902485
297,509,33570816,12.012336229892707
298,510,33570816,12.346251530831779
299,511,33570816,12.012198687027391
300,512,33570816,12.34697806138399
301,513,33570816,11.961795871944553
302,514,33570816,12.347995347821001
303,515,33570816,12.109115738618266
304,516,33570816,12.34726869754745
305,517,33570816,12.028450517404282
306,518,33570816,12.34581565354004
307,519,33570816,12.039351260783869
308,520,33570816,12.34465346454556
309,521,33570816,12.027898887849465
310,522,33570816,12.344213161030888
311,523,33570816,12.143452027838467
312,524,33570816,12.346396830101968
313,525,33570816,12.028036790494749
314,526,33570816,12.326232978866367
315,527,33570816,12.104928464748724
316,528,33570816,12.324640090341784
317,529,33570816,12.145710248096423
318,530,33570816,12.345379807024008
319,531,33570816,12.050003607375414
320,532,33570816,12.344072452097558
321,533,33570816,12.164577625475637
322,534,33570816,12.343346263443332
323,535,33570816,12.135589960781706
324,536,33570816,12.349298991075393
325,537,33570816,12.133905616629228
326,538,33570816,12.34247494983349
327,539,33570816,12.157106411024783
328,540,33570816,12.34465346454556
329,541,33570816,12.112890696176612
330,542,33570816,12.345960942550937
331,543,33570816,12.149367357973114
332,544,33570816,12.345089259775992
333,545,33570816,12.128014092286994
334,546,33570816,12.345525085776698
335,547,33570816,12.1679682487903
336,548,33570816,12.344943991280424
337,549,33570816,12.110094205368787
338,550,33570816,12.346542132792163
339,551,33570816,12.165992727399237
340,552,33570816,12.34523453169048
341,553,33570816,12.10534313324244
342,554,33570816,12.348722083627912
343,555,33570816,12.140219929004765
344,556,33570816,12.346106234981475
345,557,33570816,12.048342935525167
346,558,33570816,12.346542132792163
347,559,33570816,12.141207820093156
348,560,33570816,12.344798726203653
349,561,33570816,12.100595787566714
350,562,33570816,12.347995347821001
351,563,33570816,12.150488667963122
352,564,33570816,12.345379807024008
353,565,33570816,12.085540651897729
354,566,33570816,12.346542132792163
355,567,33579008,12.102850597465247
356,568,33579008,12.345922526495986
357,569,33579008,12.04256552238592
358,570,33579008,12.348247034016417
359,571,33579008,12.053220957717357
360,572,33579008,12.348392344800246
361,573,33579008,12.021186266230245
362,574,33579008,12.345486778762194
363,575,33579008,12.008942241289594
364,576,33579008,12.346648841079448
365,577,33579008,11.99548887705261
366,578,33579008,12.336633241412047
367,579,33579008,12.11976908956117
368,580,33579008,12.34563202458905
369,581,33579008,12.00852995587325
370,582,33579008,12.346934850896613
371,583,33579008,12.06513930473569
372,584,33579008,12.34475606254616
373,585,33579008,12.010999796829974
374,586,33579008,12.339824856037248
375,587,33579008,12.093919006526155
376,588,33579008,12.315783373714746
377,589,33579008,12.018983252745066
378,590,33579008,12.328082056493509
379,591,33579008,12.092947744893928
380,592,33579008,12.344615375566057
381,593,33579008,12.150920482939176
382,594,33579008,12.317807350844847
383,595,33579008,12.122564991034164
384,596,33579008,12.347661284599202
385,597,33579008,12.10550340806305
386,598,33579008,12.342001903914786
387,599,33579008,12.113328987605296
388,600,33579008,12.347375241126578
389,601,33579008,12.129571345334908
390,602,33579008,12.348387803786485
391,603,33579008,12.145154435734574
392,604,33579008,12.346648841079448
393,605,33579008,12.144596579882196
394,606,33579008,12.344615375566057
395,607,33579008,12.151905477240561
396,608,33579008,12.345922526495986
397,609,33579008,12.114731848110399
398,610,33579008,12.34534153635292
399,611,33579008,12.153594410484395
400,612,33579008,12.309137843689125
401,613,33579008,12.055021057419568
402,614,33579008,12.34301812249723
403,615,33579008,12.162609989209802
404,616,33579008,12.349264281327345
405,617,33579008,12.1214447254094
406,618,33579008,12.34519175869768
407,619,33579008,12.11683018976859
408,620,33579008,12.342582579756831
409,621,33579008,12.114307896503668
410,622,33579008,12.342147067752965
411,623,33579008,12.163596879680796
412,624,33579008,12.342292235005951
413,625,33579008,12.153176531732743
414,626,33579008,12.34301812249723
415,627,33579008,12.190728455663537
416,628,33579008,12.34591798729855
417,629,33579008,12.141079315263394
418,630,33579008,12.346358304991268
419,631,33587200,12.061560383933625
420,632,33587200,12.344722494407842
421,633,33587200,12.023701446544303
422,634,33587200,12.34748173457061
423,635,33587200,12.03459688622291
424,636,33587200,12.347336480653247
425,637,33587200,12.007062557399365
426,638,33587200,12.345593700171507
427,639,33587200,12.042743651037522
428,640,33587200,12.31734231277289
429,641,33587200,11.992657410948256
430,642,33587200,12.347477195333964
431,643,33587200,12.134353922750577
432,644,33587200,12.345303284587558
433,645,33587200,12.031837771943456
434,646,33587200,12.3484986076909
435,647,33587200,12.038185627165056
436,648,33587200,12.345303284587558
437,649,33587200,12.029351342213614
438,650,33587200,12.347336480653247
439,651,33587200,12.126919021966755
440,652,33587200,12.345158081919287
441,653,33587200,12.049790339847483
442,654,33587200,12.346750960454386
443,655,33587200,12.127063514787476
444,656,33587200,12.344863149514673
445,657,33587200,12.148539214406135
446,658,33587200,12.339787983373148
447,659,33587200,12.133792810950297
448,660,33587200,12.344863149514673
449,661,33587200,12.15543314262056
450,662,33587200,12.3432707580113
451,663,33587200,12.112369169917997
452,664,33587200,12.346319798913552
453,665,33587200,12.156981834673704
454,666,33587200,12.321246328813578
455,667,33587200,12.151492797315813
456,668,33587200,12.335727229522417
457,669,33587200,12.157122644428993
458,670,33587200,12.34414175887261
459,671,33587200,12.121321482150867
460,672,33587200,12.348208055423408
461,673,33587200,12.139687074293922
462,674,33587200,12.345593700171507
463,675,33587200,12.143900769659917
464,676,33587200,12.345734375132096
465,677,33587200,12.106501398004767
466,678,33587200,12.346755499157087
467,679,33587200,12.120901546906097
468,680,33587200,12.34936580591385
469,681,33587200,12.101057840961046
470,682,33587200,12.347336480653247
471,683,33587200,12.162480237490504
472,684,33587200,12.34428693763392
473,685,33587200,12.130847825168317
474,686,33587200,12.342980451704753
475,687,33587200,12.147695597277735
476,688,33587200,12.345589162322929
477,689,33587200,12.12776413486158
478,690,33587200,12.349806262120108
479,691,33587200,12.156137044636179
480,692,33587200,12.345158081919287
481,693,33587200,12.140810440449222
482,694,33587200,12.336307173578488
483,695,33595392,12.0227820024328
484,696,33595392,12.344394104743323
485,697,33595392,11.972873445406721
486,698,33595392,12.348164557450549
487,699,33595392,12.334387040068025
488,700,33595392,12.328593268692307
489,701,33595392,12.282146438621242
490,702,33595392,12.350057457700766
491,703,33595392,11.991472037298593
492,704,33595392,12.348169096085607
493,705,33595392,11.953107504841494
494,706,33595392,12.345265051713913
495,707,33595392,12.02732295213901
496,708,33595392,12.347297739326024
497,709,33595392,11.98708642447528
498,710,33595392,12.346716903136276
499,711,33595392,11.956234180729032
500,712,33595392,12.344825026686484
501,713,33595392,12.001337475315292
502,714,33595392,12.342507474486816
503,715,33595392,12.039874653447747
504,716,33595392,12.3478786301678
505,717,33595392,12.001611866077935
506,718,33595392,12.282294618081579
507,719,33595392,12.102753501904104
508,720,33595392,12.31239962735223
509,721,33595392,12.144618870554586
510,722,33595392,12.342072180166067
511,723,33595392,12.072830716056588
512,724,33595392,12.34613158445012
513,725,33595392,12.1519242281475
514,726,33595392,12.344684406745532
515,727,33595392,12.05176512623265
516,728,33595392,12.347007314400129
517,729,33595392,12.1406821035894
518,730,33595392,12.348019322890229
519,731,33595392,12.071581360502908
520,732,33595392,12.347588177914927
521,733,33595392,12.139839782724879
522,734,33595392,12.347007314400129
523,735,33595392,12.101358455741316
524,736,33595392,12.334821792451375
525,737,33595392,12.116022499943199
526,738,33595392,12.311961942023961
527,739,33595392,12.00051437830238
528,740,33595392,12.329461987385525
529,741,33595392,12.074496925792399
530,742,33595392,12.346571702627314
531,743,33595392,12.079915285166454
532,744,33595392,12.34555539468201
533,745,33595392,12.024430121320234
534,746,33595392,12.344394104743323
535,747,33595392,12.165865214867424
536,748,33595392,12.346857569386177
537,749,33595392,12.116022499943199
538,750,33595392,12.346281311854717
539,751,33595392,12.14953353496128
540,752,33595392,12.344974722402073
541,753,33595392,12.148694378650081
542,754,33595392,12.34541022149087
543,755,33595392,12.200366206451248
544,756,33595392,12.34540568488366
545,757,33595392,12.155441663063556
546,758,33595392,12.316728521500222
547,759,33603584,12.104588338400989
548,760,33603584,12.344641802948365
549,761,33603584,11.997410835005711
550,762,33603584,12.348275357749444
551,763,33603584,12.001249996875007
552,764,33603584,12.346528625643577
553,765,33603584,11.963104877827362
554,766,33603584,12.347113839270952
555,767,33603584,12.006597207334677
556,768,33603584,12.345807392145524
557,769,33603584,11.965554273668618
558,770,33603584,12.349727563195563
559,771,33603584,12.037021355553597
560,772,33603584,12.348856198942375
561,773,33603584,12.03743098469654
