idx,og Index,data (B),bandwidth (GB/s)
0,0,33562624,10.17883568197568
1,1,33562624,12.330459879908654
2,2,33562624,11.0488997394033
3,3,33562624,12.326841435075936
4,4,33562624,11.584399698194066
5,6,33562624,11.773215643121258
6,8,33562624,11.898361338028494
7,9,33562624,12.33524546542432
8,10,33562624,11.936547769309751
9,11,33562624,12.243382031870432
10,13,33562624,12.298366709648956
11,15,33562624,12.284246063931647
12,16,33562624,12.047469636899132
13,17,33562624,12.283095156535003
14,18,33562624,11.644203714613028
15,19,33562624,12.244378095513275
16,21,33562624,12.184780308088195
17,22,33562624,11.767667740142807
18,24,33562624,12.02647193618585
19,25,33562624,12.339313412807103
20,26,33562624,11.925147480441053
21,27,33562624,12.34512293582031
22,29,33562624,12.344391906007527
23,31,33562624,12.3468668596051
24,32,33562624,12.150756068386466
25,33,33562624,12.340620078707586
26,34,33562624,12.094709014538463
27,35,33562624,12.343520232081229
28,37,33562624,12.341491343061856
29,39,33562624,12.346280955253748
30,40,33562624,12.079799626332912
31,41,33562624,12.345990294662064
32,42,33562624,12.205198586256843
33,43,33562624,12.297501523327336
34,45,33562624,12.345990294662064
35,47,33562624,12.344977631075132
36,48,33562624,12.038071189796415
37,49,33562624,12.343956053655967
38,50,33562624,12.072990558191869
39,51,33562624,12.34672151380455
40,53,33562624,12.3464262906819
41,55,33562624,12.347007666612711
42,56,33562624,12.08592870003601
43,57,33562624,12.340615541194431
44,58,33562624,12.124634094796678
45,59,33562624,12.346430832469164
46,61,33562624,12.34221749067327
47,63,33562624,12.305725711566222
48,64,33562624,11.92311824137098
49,65,33562624,12.342798470289315
50,66,33562624,11.961323326427717
51,67,33562624,12.323799781082391
52,68,33562624,12.016555485221796
53,71,33562624,12.285401684022649
54,72,33562624,11.926096672715715
55,73,33562624,12.342212951985337
56,74,33562624,11.90768223165727
57,75,33562624,12.347007666612711
58,77,33562624,12.34555887058003
59,79,33562624,12.346576171425944
60,80,33562624,12.049826949865725
61,81,33562624,12.3457041890084
62,82,33562624,12.179399119203625
63,83,33562624,12.220695199783279
64,85,33562624,12.23723503863397
65,87,33562624,12.34672151380455
66,88,33562624,12.284246063931647
67,89,33562624,12.34541355557264
68,90,33562624,12.083004760821293
69,91,33562624,12.34483232975045
70,93,33562624,12.343810776378236
71,95,33562624,12.342503434742829
72,96,33562624,12.309331768502897
73,97,33562624,12.343670042276338
74,98,33562624,12.115106168547081
75,99,33562624,12.343956053655967
76,101,33562624,12.343815316241404
77,103,33562624,12.346135623247177
78,104,33562624,12.284826095088686
79,105,33562624,12.34671697180342
80,106,33562624,11.993740585953484
81,107,33562624,12.346576171425944
82,109,33562624,12.348170582746878
83,111,33562624,12.349479125271918
84,112,33562624,12.308320595682009
85,113,33562624,12.343810776378236
86,114,33562624,11.890402863960123
87,115,33562624,12.31902307066918
88,116,33562624,12.293033332539745
89,119,33562624,12.34497309035696
90,120,33562624,12.146534527335527
91,121,33562624,12.342943723739737
92,122,33562624,12.118045666584827
93,123,33562624,12.3464262906819
94,125,33562624,12.345994836128561
95,127,33562624,12.344396446298166
96,128,33562624,12.152727125257448
97,129,33562624,12.344105874430243
98,130,33562624,12.11944155264052
99,131,33562624,12.345268243986107
100,132,33562624,12.140067191971688
101,134,33562624,12.3457041890084
102,136,33562624,12.261698850500805
103,137,33562624,12.341196370001029
104,138,33562624,12.340329684592449
105,139,33562624,12.324084872377114
106,140,33562624,12.345990294662064
107,142,33562624,12.337426494941353
108,144,33562624,12.344105874430243
109,145,33562624,12.30442191335666
110,146,33562624,12.306443143984394
111,147,33562624,12.335685236743208
112,148,33562624,12.340039304143849
113,150,33562624,12.313093525602152
114,152,33562624,12.342793931174077
115,153,33562624,12.344682491341743
116,154,33562624,12.344105874430243
117,155,33562624,12.338297308395452
118,156,33562624,12.332924717717162
119,158,33562624,12.340620078707586
120,160,33562624,12.284821598512467
121,161,33562624,12.308753935119308
122,162,33562624,12.319307941001147
123,163,33562624,12.337421959776385
124,164,33562624,12.30341154700005
125,166,33562624,12.344101334353347
126,168,33562624,12.344541737362086
127,169,33562624,12.334084982404356
128,170,33562624,12.277487569832811
129,171,33562624,12.33945858424239
130,172,33562624,12.20022508309754
131,174,33562624,12.343524771730683
132,176,33562624,12.335685236743208
133,177,33562624,12.340615541194431
134,178,33562624,12.29879484165257
135,179,33562624,12.321917604536285
136,180,33562624,12.336265601527872
137,182,33562624,12.275049328600714
138,184,33562624,12.26040884316963
139,185,33562624,12.258402704526928
140,186,33562624,12.317571793057484
141,187,33562624,12.338877918995497
142,188,33562624,12.344101334353347
143,190,33562624,12.311065594215572
144,192,33562624,12.254249219382107
145,193,33562624,12.335100393104645
146,194,33562624,11.735404794356256
147,195,33562624,12.347298375110734
148,197,33562624,12.348902060184784
149,199,33562624,12.344251158654258
150,200,33562624,11.983052233239945
151,201,33562624,12.346862317497035
152,202,33562624,11.90376297616206
153,203,33562624,12.346285496934087
154,205,33562624,12.3457041890084
155,207,33562624,12.345263703054147
156,208,33562624,11.88312816240516
157,209,33562624,12.341777253485287
158,210,33562624,11.862162272013176
159,211,33562624,12.344391906007527
160,213,33562624,12.343815316241404
161,215,33562624,12.346862317497035
162,216,33562624,12.014761679916118
163,217,33562624,12.344396446298166
164,218,33562624,12.045809258253659
165,219,33562624,12.344101334353347
166,221,33562624,12.342358191654924
167,223,33562624,12.34453719696457
168,224,33562624,11.89053345208766
169,225,33562624,12.198238589941528
170,226,33562624,12.10419614189077
171,227,33562624,12.29072393881778
172,229,33562624,12.311065594215572
173,231,33562624,12.34584496949829
174,232,33562624,12.004173234288764
175,233,33562624,12.324374502436775
176,234,33562624,11.930437762357577
177,235,33562624,12.349479125271918
178,237,33562624,12.118325693174695
179,239,33562624,12.349915367745544
180,240,33562624,12.00953387973156
181,241,33562624,12.229387295840585
182,242,33562624,11.921618996943105
183,243,33562624,12.341346123792851
184,244,33562624,11.848493759728084
185,247,33562624,12.344246618470493
186,248,33562624,12.08203042878495
187,249,33562624,12.346140164820593
188,250,33562624,12.14174926643304
189,251,33562624,12.348752122965706
190,253,33562624,12.34322970146136
191,255,33562624,12.3464262906819
192,256,33570816,11.735121978331975
193,257,33570816,12.345225452095658
194,258,33570816,11.700695332731526
195,259,33570816,11.913289542323621
196,261,33570816,12.234797440121287
197,263,33570816,12.216987641381719
198,264,33570816,11.765255734765644
199,265,33570816,12.347259614960233
200,266,33570816,11.891552527185723
201,267,33570816,12.343772888924187
202,269,33570816,12.347990805991186
203,270,33570816,11.893305085796579
204,272,33570816,11.968883797691205
205,273,33570816,12.347695594219786
206,274,33570816,11.800462094441475
207,275,33570816,12.347554805884752
208,277,33570816,12.347404937959201
209,279,33570816,12.346392289448008
210,280,33570816,12.088595693654993
211,281,33570816,12.344644385805438
212,282,33570816,11.91451146544219
213,283,33570816,12.345080180394856
214,284,33570816,12.085949642020497
215,287,33570816,12.345661287712744
216,288,33570816,12.119603171164927
217,289,33570816,12.346387748797387
218,290,33570816,12.014257861149046
219,291,33570816,12.24464624337038
220,293,33570816,12.345375267118081
221,295,33570816,12.346392289448008
222,296,33570816,12.23579632432054
223,297,33570816,12.345375267118081
224,298,33570816,12.062746315508068
225,299,33570816,12.345375267118081
226,301,33570816,12.345665827829036
227,303,33570816,12.33419906994243
228,304,33570816,11.982280789733394
229,305,33570816,12.335209719188814
230,306,33570816,12.177422584380196
231,307,33570816,12.344789647249867
232,308,33570816,12.048195918929851
233,311,33570816,12.347990805991186
234,312,33570816,11.992828055890865
235,313,33570816,12.342320667535303
236,314,33570816,12.17346604276601
237,315,33570816,12.346968979224348
238,317,33570816,12.343482417307664
239,319,33570816,12.21627632785549
240,320,33570816,11.94353906531004
241,321,33570816,12.34711429538199
242,322,33570816,12.010131625267244
243,323,33570816,12.344499127779558
244,325,33570816,12.34711429538199
245,327,33570816,12.347554805884752
246,328,33570816,11.954976026528932
247,329,33570816,12.34828148983526
248,330,33570816,12.025688567670347
249,331,33570816,12.346678357170388
250,333,33570816,12.347554805884752
251,335,33570816,12.348136146202497
252,336,33570816,11.91572518043526
253,337,33570816,12.333904517251616
254,338,33570816,12.211583735162396
255,339,33570816,12.301940999023785
256,340,33570816,12.231801765825534
257,342,33570816,12.284654545028733
258,344,33570816,12.188741173634329
259,345,33570816,12.334919650441945
260,346,33570816,12.310746943840595
261,347,33570816,12.3411591364266
262,348,33570816,12.328251832483804
263,350,33570816,12.282209558597557
264,352,33570816,12.323617600502772
265,353,33570816,12.341308852771434
266,354,33570816,12.302806598864226
267,355,33570816,12.2790469028439
268,356,33570816,12.347845469201205
269,358,33570816,12.330860119948401
270,360,33570816,12.345661287712744
271,361,33570816,12.267990422648857
272,362,33570816,12.342030264260819
273,363,33570816,12.339272114584467
274,364,33570816,12.32593428090551
275,366,33570816,12.330860119948401
276,368,33570816,12.161748408994331
277,369,33570816,12.332164677600895
278,370,33570816,12.341163673232163
279,371,33570816,12.321157081575308
280,372,33570816,12.342470412063783
281,374,33570816,12.317829707666883
282,376,33570816,12.238793955779546
283,377,33570816,12.30944691336296
284,378,33570816,12.216560843326143
285,379,33570816,12.313352345146944
286,380,33570816,12.337966052858281
287,382,33570816,12.344063374212014
288,384,33570816,12.31291427163015
289,385,33570816,12.342611084476262
290,386,33570816,12.186475772844096
291,387,33570816,12.34043329049637
292,388,33570816,11.756685598777922
293,391,33570816,12.344208621982968
294,392,33570816,12.044742061498807
295,393,33570816,12.32723779644138
296,394,33570816,11.96656287817893
297,395,33570816,12.343772888924187
298,397,33570816,12.347845469201205
299,399,33570816,12.347404937959201
300,400,33570816,11.996393665114713
301,401,33570816,12.349730571259562
302,402,33570816,11.8898004850014
303,403,33570816,11.910588671059676
304,405,33570816,12.345375267118081
305,407,33570816,12.3423252051949
306,408,33570816,12.157520259325157
307,409,33570816,12.264978473787123
308,410,33570816,12.128566179645098
309,411,33570816,12.346678357170388
310,413,33570816,12.314364097953488
311,415,33570816,12.34363219002775
312,416,33570816,12.050552940737273
313,417,33570816,12.349298991075393
314,418,33570816,12.111068461047825
315,419,33570816,12.3452299918914
316,421,33570816,12.346678357170388
317,423,33570816,12.347404937959201
318,424,33570816,12.020177079364897
319,425,33570816,12.346242449740945
320,426,33570816,12.075520346235637
321,427,33570816,12.320288897696745
322,429,33570816,12.344208621982968
323,431,33570816,12.249793378704268
324,432,33570816,12.12772492372941
325,433,33570816,12.230946128309235
326,434,33570816,12.053040706836029
327,435,33570816,12.344353873172109
328,437,33570816,11.991457232044596
329,439,33570816,12.346392289448008
330,440,33570816,12.10659604116359
331,441,33570816,12.324201213300416
332,442,33570816,12.126327470069613
333,443,33570816,12.345225452095658
334,445,33570816,12.088177819002931
335,447,33570816,12.313636883819607
336,448,33570816,12.04169618430629
337,449,33570816,12.239365099735458
338,450,33570816,12.128710782259347
339,451,33570816,12.271434461824594
340,453,33570816,12.346968979224348
341,455,33570816,12.347264156252173
342,456,33570816,12.133475832850523
343,457,33570816,12.344789647249867
344,458,33570816,12.049999282114603
345,459,33570816,12.345375267118081
346,461,33570816,12.344499127779558
347,463,33570816,12.345665827829036
348,464,33570816,12.072185382833965
349,465,33570816,12.344789647249867
350,466,33570816,12.047923515309858
351,467,33570816,12.346392289448008
352,469,33570816,12.34464892517383
353,471,33570816,12.343046735514461
354,472,33570816,12.144150492645498
355,473,33570816,12.347550264379011
356,474,33570816,12.026787163284117
357,475,33570816,12.24365484455094
358,477,33570816,12.347118836567033
359,478,33570816,12.208599416387129
360,480,33570816,11.983786406068782
361,481,33570816,12.349444362084117
362,482,33570816,12.07259781101827
363,483,33570816,12.343627651407074
364,485,33570816,12.344789647249867
365,487,33570816,12.346968979224348
366,488,33570816,12.193699675423737
367,489,33570816,12.347840927481647
368,490,33570816,12.1731791168876
369,491,33570816,12.346678357170388
370,493,33570816,12.34333718662584
371,495,33570816,12.345951861887572
372,496,33570816,12.147806663147012
373,497,33570816,12.3458065730904
374,498,33570816,12.176574537540805
375,499,33570816,12.343196497661761
376,501,33570816,12.34552054576392
377,503,33570816,12.344213161030888
378,504,33570816,12.089431529637833
379,505,33570816,12.343627651407074
380,506,33570816,11.980916651677502
381,507,33570816,12.34043329049637
382,509,33570816,12.345084720083754
383,511,33570816,12.347259614960233
384,512,33579008,11.798427157844289
385,513,33579008,12.344901291179532
386,514,33579008,11.797233365163617
387,515,33579008,12.342863864261243
388,517,33579008,12.346349225958837
389,519,33579008,12.34576819565569
390,520,33579008,11.791003037379076
391,521,33579008,12.34693031095475
392,522,33579008,11.909704887379384
393,523,33579008,12.343884762498185
394,524,33579008,11.824085648629064
395,527,33579008,12.34577273474298
396,528,33579008,12.017735810295974
397,529,33579008,12.34896453925748
398,530,33579008,11.778169615563638
399,531,33579008,12.343884762498185
400,533,33579008,12.3478065815974
401,535,33579008,12.344029970631516
402,536,33579008,12.08959961289096
403,537,33579008,12.348237952205979
404,538,33579008,12.012095442816909
405,539,33579008,12.346203963255906
406,541,33579008,12.346208502663632
407,543,33579008,12.224666742390484
408,544,33579008,12.199085659147913
409,545,33579008,12.344170644268576
410,546,33579008,12.01347065395925
411,547,33579008,12.347802041014447
412,549,33579008,12.344465615530224
413,551,33579008,12.344170644268576
414,552,33579008,12.11402382182407
415,553,33579008,12.345046523229998
416,554,33579008,12.096702992671515
417,555,33579008,12.346349225958837
418,556,33579008,12.326480028897235
419,558,33579008,12.273711112605671
420,560,33579008,12.335464000540748
421,561,33579008,12.339090275715893
422,562,33579008,12.229653305673153
423,563,33579008,12.327348873545125
424,564,33579008,12.297732579772818
425,566,33579008,12.308122684598887
426,568,33579008,12.340251134101846
427,569,33579008,12.30278344959282
428,570,33579008,12.34475606254616
429,571,33579008,12.321558888370276
430,572,33579008,12.263670123093195
431,574,33579008,12.312884101462922
432,576,33579008,12.236641332645322
433,577,33579008,12.342432869038802
434,578,33579008,12.16528465723171
435,579,33579008,12.305664437558086
436,580,33579008,12.079435969363804
437,582,33579008,12.197809415040002
438,584,33579008,12.049752090019116
439,585,33579008,12.115557983389143
440,586,33579008,12.312161753878556
441,587,33579008,12.321708093120812
442,588,33579008,12.297876704100975
443,590,33579008,12.34519175869768
444,591,33579008,12.267971391911521
445,592,33579008,12.267975873972965
446,593,33579008,12.205186957874504
447,594,33579008,12.327204057598157
448,595,33579008,12.338945183774138
449,596,33579008,11.791135529026082
450,598,33579008,11.713610165955853
451,600,33579008,11.89998472589358
452,601,33579008,12.34576819565569
453,602,33579008,11.739294656610243
454,603,33579008,12.346639761619715
455,605,33579008,12.342142531331334
456,607,33579008,12.149227897014342
457,608,33579008,11.988764931505285
458,609,33579008,12.260517775720098
459,610,33579008,11.983562263725386
460,611,33579008,12.347075590750377
461,613,33579008,12.179824203454777
462,615,33579008,12.349550412331968
463,616,33579008,11.822890820933543
464,617,33579008,12.344901291179532
465,618,33579008,11.833957412706127
466,619,33579008,12.243494494275504
467,620,33579008,11.850663116774125
468,623,33579008,12.346058703971151
469,624,33579008,12.021319677741786
470,625,33579008,12.348387803786485
471,626,33579008,11.913495110462081
472,627,33579008,12.349550412331968
473,628,33579008,12.03606912879297
474,631,33579008,12.347515991020392
475,632,33579008,12.046708744095305
476,633,33579008,12.347220873964906
477,634,33579008,11.951211421680949
478,635,33579008,12.244637434253326
479,637,33579008,12.34910986692871
480,639,33579008,12.347656744123107
481,640,33579008,12.055293715552722
482,641,33579008,12.344465615530224
483,642,33579008,12.040769140296675
484,643,33579008,12.291830888987723
485,644,33579008,12.1075941881831
486,647,33579008,12.287796152686415
487,648,33579008,11.92703620733197
488,649,33579008,12.348673894176313
489,650,33579008,11.844108863203555
490,651,33579008,12.31043297856389
491,652,33579008,12.135458558967494
492,655,33579008,12.346639761619715
493,656,33579008,11.883001002901123
494,657,33579008,12.344461077404043
495,658,33579008,11.95012685373901
496,659,33579008,12.307252037097308
497,662,33579008,11.943462148456854
498,664,33579008,11.933822546848212
499,665,33579008,12.346934850896613
500,666,33579008,11.878969605141716
501,667,33579008,12.343735020188742
502,669,33579008,12.193273820071637
503,670,33579008,11.988490994263705
504,672,33579008,11.91606555236215
505,673,33579008,12.285638184218305
506,674,33579008,11.903089400230341
507,675,33579008,12.336769214038615
508,677,33579008,12.348097185852442
509,679,33579008,12.349545870466429
510,680,33579008,12.023799088484598
511,681,33579008,12.346353765473383
512,682,33579008,11.910921552310638
513,683,33579008,12.275434076266404
514,685,33579008,12.245208984266739
515,687,33579008,12.347661284599202
516,688,33579008,11.821425717324392
517,689,33579008,12.347802041014447
518,690,33579008,11.977411318881067
519,691,33579008,12.322427039388895
520,693,33579008,12.34751145065115
521,695,33579008,12.094894780671801
522,696,33579008,11.980278694203808
523,697,33579008,12.183505411987356
524,698,33579008,11.927985236994898
525,699,33579008,12.348528576766135
526,702,33579008,11.884620217121933
527,704,33579008,11.868217191256422
528,705,33579008,12.31129504864535
529,706,33579008,11.897956594915405
530,707,33579008,12.349550412331968
531,709,33579008,12.346639761619715
532,711,33579008,12.285062853965142
533,712,33579008,12.11108333919429
534,713,33579008,12.349405074291699
535,714,33579008,12.074710070742343
536,715,33579008,12.344751524206428
537,717,33579008,12.351726350048997
538,719,33579008,12.28966700533178
539,720,33579008,11.956662760518205
540,721,33579008,12.347951882015106
541,722,33579008,11.855215230765157
542,723,33579008,12.344465615530224
543,725,33579008,12.345041984676696
544,727,33579008,12.343154235907509
545,728,33579008,11.9945205068424
546,729,33579008,12.348237952205979
547,730,33579008,12.046847044650349
548,731,33579008,12.350563331793452
549,733,33579008,12.22153441202419
550,735,33579008,12.345627485605227
551,736,33579008,12.005361456788897
552,737,33579008,12.34910986692871
553,738,33579008,11.827954883367212
554,739,33579008,12.234068917223768
555,741,33579008,12.348237952205979
556,742,33579008,12.183642450689804
557,744,33579008,12.059588625870198
558,745,33579008,12.347515991020392
559,746,33579008,12.07985313803061
560,747,33579008,12.25822617716033
561,749,33579008,12.344025432825637
562,751,33579008,12.346203963255906
