idx,og Index,data (B),bandwidth (GB/s)
0,1,33669120,12.15451766747013
1,3,33669120,11.925419375222036
2,5,33669120,12.328368658248836
3,7,33669120,12.072601005347295
4,9,33669120,12.234271900082593
5,10,33685504,11.748948417708716
6,11,33685504,11.881907214222096
7,13,33685504,12.2294091742613
8,15,33685504,12.209966968156694
9,17,33685504,12.230261684109248
10,19,33685504,11.976178125785497
11,21,33685504,12.108502928319526
12,23,33685504,11.933661384546166
13,25,33685504,11.933796672545203
14,27,33685504,11.2804440178877
15,29,33685504,11.756037857470163
16,31,33685504,11.675408737171887
17,33,33685504,11.77854361545003
18,35,33685504,12.336820747962358
19,37,33685504,12.320063023942295
20,39,33685504,12.2999005725749
21,41,33685504,12.210391854012514
22,43,33685504,11.868636228307075
23,45,33685504,11.84311560866586
24,47,33685504,11.97795392512584
25,49,33685504,12.141064187910658
26,51,33685504,12.113105259637658
27,53,33685504,12.122036874767216
28,55,33685504,12.195529591592543
29,57,33685504,12.008852586187228
30,59,33685504,12.122739233829872
31,61,33685504,12.113523430875375
32,63,33685504,12.057710053728224
33,65,33685504,12.06006276079473
34,67,33685504,12.276505703560625
35,69,33685504,12.334652403088286
36,71,33685504,12.15509210813089
37,73,33685504,12.279513040840936
38,74,33701888,11.810450436559181
39,75,33701888,11.773461937516812
40,77,33701888,12.17845019292909
41,79,33701888,12.280037676105733
42,81,33701888,12.126257129174105
43,83,33701888,11.406277297804602
44,85,33701888,12.061778615414019
45,87,33701888,12.024162574696371
46,89,33701888,11.908529244755329
47,91,33701888,12.24290450815161
48,93,33701888,12.214913900554425
49,95,33701888,12.329807157253306
50,97,33701888,12.09880110110872
51,99,33701888,12.018669618505289
52,101,33701888,11.93783745968549
53,103,33701888,12.166483036468524
54,105,33701888,12.166206338130111
55,107,33701888,12.16634688174504
56,109,33701888,12.34383379464454
57,111,33701888,12.175352830629015
58,113,33701888,12.264013033331866
59,115,33701888,12.299124220034699
60,117,33701888,12.16493720067629
61,119,33701888,12.227681921024484
62,121,33701888,12.155525747531971
63,123,33701888,12.061921073644102
64,125,33701888,12.338912259505372
65,127,33701888,12.075344495294999
66,129,33701888,11.926072401712728
67,131,33701888,11.967426277504453
68,133,33701888,12.241334746516863
69,135,33701888,12.11063106508291
70,137,33701888,12.247745287335269
71,138,33718272,11.773657639966004
72,139,33718272,11.885005620288448
73,141,33718272,12.224680254933176
74,143,33718272,12.093698687917087
75,145,33718272,11.895076660501276
76,147,33718272,11.206946269710379
77,149,33718272,12.070134944008098
78,151,33718272,12.087728713376015
79,153,33718272,12.221135601753236
80,155,33718272,12.208524463378524
81,157,33718272,12.216455379754862
82,159,33718272,12.16466431273881
83,161,33718272,12.0860606025848
84,163,33718272,12.067780595646358
85,165,33718272,12.11846950118729
86,166,33718272,11.859844069527854
87,169,33718272,12.338405805056372
88,171,33718272,11.652887883589564
89,173,33718272,12.065569640726748
90,175,33718272,12.273981538578024
91,177,33718272,12.315319003927444
92,179,33718272,11.974477288345062
93,181,33718272,12.146710385537325
94,183,33718272,11.735740188303545
95,185,33718272,11.99957721742875
96,187,33718272,12.225247590266434
97,189,33718272,12.088842487790432
98,191,33718272,12.184088903599838
99,193,33718272,12.33912823909567
100,195,33718272,12.183948018272522
101,197,33718272,12.147826303121093
102,199,33718272,12.236330045104728
103,201,33718272,12.304667802559079
104,202,33734656,12.16257163407718
105,203,33734656,11.701014271671637
106,205,33734656,12.322747874774619
107,207,33734656,12.339628369839279
108,209,33734656,11.935505510166246
109,211,33734656,12.336018506227678
110,213,33734656,11.905564809847823
111,215,33734656,12.127286943486302
112,217,33734656,11.87831634988486
113,219,33734656,11.94564895616591
114,221,33734656,12.220549569894576
115,223,33734656,11.709210159123316
116,225,33734656,11.712987052217157
117,227,33734656,11.556755949383394
118,229,33734656,11.923482519469742
119,231,33734656,12.337029055124244
120,233,33734656,12.229910893124316
121,235,33734656,11.99843931558938
122,237,33734656,12.060656047746885
123,239,33734656,11.765829186389935
124,241,33734656,12.325768993697663
125,243,33734656,12.342233295649534
126,245,33734656,11.823263625543417
127,247,33734656,12.019789117980412
128,249,33734656,11.703096677549427
129,251,33734656,12.306622807193547
130,253,33734656,12.192405970960563
131,255,33734656,11.982061709934184
132,257,33734656,12.282091592169964
133,259,33734656,11.683628968352922
134,261,33734656,12.211768376934998
135,263,33734656,11.469944766221204
136,265,33734656,12.053614566960503
137,266,33751040,12.088650235443833
138,267,33751040,12.125082448020025
139,269,33751040,12.244804372149316
140,271,33751040,12.159211228352317
141,272,33751040,11.863086971849674
142,275,33751040,12.337385476036602
143,277,33751040,11.3856499352809
144,279,33751040,11.88864400015358
145,281,33751040,12.058227834534058
146,283,33751040,11.46502934107836
147,285,33751040,12.062921117002798
148,287,33751040,11.194723815601547
149,289,33751040,12.022606791298964
150,291,33751040,11.563129314627336
151,293,33751040,12.18634312290785
152,295,33751040,12.05671590180027
153,297,33751040,11.553115308518576
154,298,33751040,11.824231816468354
155,301,33751040,12.337385476036602
156,303,33751040,12.338540097740161
157,305,33751040,12.339555080431312
158,307,33751040,12.122856969422248
159,309,33751040,11.528474968096996
160,311,33751040,12.258902958245466
161,313,33751040,12.133460356263368
162,315,33751040,11.925088022104015
163,317,33751040,11.897901874064502
164,319,33751040,11.649642030475215
165,321,33751040,11.981612430388976
166,323,33751040,12.115193815590535
167,325,33751040,11.92698015340981
168,327,33751040,11.4645308535836
169,328,33751040,11.930757783033041
170,330,33767424,12.035036496350365
171,331,33767424,12.341209114113543
172,333,33767424,12.224904722098428
173,334,33767424,12.337457581045413
174,337,33767424,12.223347034517209
175,339,33767424,11.6948481943467
176,341,33767424,11.951158257156731
177,343,33767424,11.663292331966007
178,345,33767424,11.368216928993892
179,347,33767424,11.574452682344957
180,349,33767424,11.690184066071023
181,351,33767424,11.325611518995409
182,353,33767424,12.137810059874127
183,355,33767424,11.995881940433078
184,357,33767424,11.863637513456085
185,359,33767424,11.88998826755606
186,361,33767424,12.215842953847579
187,363,33767424,11.481585728969703
188,365,33767424,11.941817657131581
189,367,33767424,12.33890020842895
190,369,33767424,12.337601828603498
191,371,33767424,11.916048439944287
192,373,33767424,12.054016967581966
193,375,33767424,12.17972543210304
194,377,33767424,12.245626034221466
195,379,33767424,12.092439553781082
196,381,33767424,11.698352786460887
197,383,33767424,11.348395778357022
198,385,33767424,12.21655007539601
199,387,33767424,12.215131495413278
200,389,33767424,12.163431062448872
201,391,33767424,12.324480102311574
202,393,33767424,11.87098207615656
203,394,33783808,12.065378552332055
204,395,33783808,12.29998682032757
205,397,33783808,12.19929773475404
206,399,33783808,12.122491540689017
207,401,33783808,12.050358973188299
208,403,33783808,11.099384805938717
209,405,33783808,11.322471063589054
210,407,33783808,11.920753216352809
211,409,33783808,11.887042894791472
212,411,33783808,11.40089226055088
213,413,33783808,11.783235232157281
214,415,33783808,12.199020216387236
215,417,33783808,12.119430013337762
216,419,33783808,12.08362009918325
217,421,33783808,11.979903831151331
218,423,33783808,11.74964325523727
219,425,33783808,11.74964325523727
220,427,33783808,12.196619989227173
221,429,33783808,11.875005228561054
222,431,33783808,12.098584109523893
223,433,33783808,12.139789478525811
224,435,33783808,12.13406450370877
225,437,33783808,12.098306821880929
226,439,33783808,12.086114412336894
227,441,33783808,11.986436771576969
228,443,33783808,12.033597665075547
229,445,33783808,12.212576089545905
230,447,33783808,12.010312488890468
231,449,33783808,11.770615243214541
232,451,33783808,11.128066378779344
233,453,33783808,11.650396458513159
234,455,33783808,12.340120852343976
235,457,33783808,11.907438384718466
236,458,33800192,11.923841656515584
237,459,33800192,11.525477639677424
238,460,33800192,11.81546859777402
239,461,33800192,12.327077073335115
240,462,33800192,12.047260636013334
241,463,33800192,12.32635330191225
242,464,33800192,11.695046138078958
243,465,33800192,12.341484752510821
244,466,33800192,11.66377328514175
245,467,33800192,12.325634110159912
246,468,33800192,11.52258191639903
247,469,33800192,12.33802491974854
248,470,33800192,11.439304006914986
249,471,33800192,11.269070877052135
250,472,33800192,11.845568310691371
251,473,33800192,12.038057139845101
252,474,33800192,11.599305967362895
253,475,33800192,11.909179282514781
254,476,33800192,11.901119860849235
255,477,33800192,12.095026288640796
256,478,33800192,11.47187065776889
257,479,33800192,11.993883863669348
258,480,33800192,11.851416341397393
259,481,33800192,11.858206130236745
260,482,33800192,11.620121811188532
261,483,33800192,11.624086070021995
262,484,33800192,11.988838383927954
263,485,33800192,12.295772024585585
264,486,33800192,11.637797975861004
265,487,33800192,12.230670584318776
266,488,33800192,12.013262851186019
267,489,33800192,12.123915758633578
268,490,33800192,11.776717492089087
269,491,33800192,12.193097158952352
270,492,33800192,12.056069679406674
271,493,33800192,11.866740769009585
272,494,33800192,11.894686870627716
273,495,33800192,12.066265554863
274,496,33800192,12.082427424523685
275,497,33800192,11.771205287957569
276,498,33800192,11.73847656277132
277,499,33800192,12.200138893099957
278,500,33800192,12.03503956941864
279,501,33800192,11.709445276841931
280,502,33800192,11.542996906972512
281,503,33800192,12.336727982533045
282,504,33800192,11.984893446747131
283,505,33800192,12.343075665180272
284,506,33800192,11.795931543502835
285,507,33800192,11.010946382207976
286,508,33800192,11.8816997202192
287,509,33800192,11.86314223370468
288,510,33800192,11.783421935098815
289,511,33800192,12.02489637479895
290,512,33800192,11.91764880933492
291,513,33800192,11.789866702012812
292,514,33800192,11.907698247957736
293,515,33800192,11.36295596543395
294,516,33800192,11.908642207581957
295,517,33800192,12.079935840894567
296,518,33800192,11.871012696994473
297,519,33800192,11.847561309028912
298,520,33800192,11.941779562360997
299,521,33800192,12.147348658552188
300,522,33570816,9.615257556328945
301,523,33570816,12.341744411884402
302,524,33570816,10.707557463611296
303,525,33570816,12.290123330238606
304,526,33570816,11.216312538944583
305,527,33570816,12.100870578261208
306,528,33570816,11.399498393514566
307,529,33570816,12.221831220504217
308,530,33570816,11.317717039003876
309,531,33570816,12.21186803209275
310,532,33570816,11.416493626711157
311,533,33570816,12.215991825636875
312,534,33570816,11.419103215707297
313,535,33570816,11.874861737451313
314,536,33570816,11.805508188927146
315,537,33570816,12.214996172218163
316,538,33570816,11.537021012195197
317,539,33570816,12.346973520302498
318,540,33570816,11.874996153189032
319,541,33570816,12.30872930583314
320,542,33570816,11.451636517449932
321,543,33570816,12.227101693723828
322,544,33570816,11.943271373560226
323,545,33570816,11.643167946794408
324,546,33570816,11.493032967461847
325,547,33570816,12.271726038273549
326,548,33570816,11.983238865442956
327,549,33570816,11.98283251998161
328,550,33570816,11.567679098259825
329,551,33570816,12.276464975990715
330,552,33570816,12.003260860237814
331,553,33570816,12.121563654535528
332,554,33570816,11.537659386467139
333,555,33570816,12.207320869102302
334,556,33570816,11.932671086777948
335,557,33570816,12.34348695582154
336,558,33570816,11.664009639511992
337,559,33570816,12.060384521840907
338,560,33570816,12.156538516134452
339,561,33570816,12.233803177213101
340,562,33570816,11.627939906105889
341,563,33570816,12.254233576002873
342,564,33570816,11.95511226207875
343,565,33570816,12.211299451468813
344,566,33570816,11.56487367827076
345,567,33570816,12.335499801578553
346,568,33570816,11.96643064700565
347,569,33570816,12.051798858678952
348,570,33570816,11.444016360079932
349,571,33570816,12.136427920697583
350,572,33570816,11.913297997677727
351,573,33570816,12.221969156387889
352,574,33570816,11.543495259270161
353,575,33570816,12.214289534569383
354,576,33570816,11.955384742493612
355,577,33570816,12.199087761527258
356,578,33570816,11.7648599150091
357,579,33570816,12.310895923201238
358,580,33570816,11.913158485869747
359,581,33570816,11.977629457473313
360,582,33570816,11.749184629206216
361,583,33570816,12.343046735514461
362,584,33570816,11.874055306922898
363,585,33570816,11.540197722060904
364,586,33587200,11.791631281217164
365,587,33587200,12.16881682719202
366,588,33587200,11.739667340207152
367,589,33587200,12.103984016652204
368,590,33587200,11.889539483535385
369,591,33587200,12.300737263427289
370,592,33587200,11.819116895145243
371,593,33587200,12.345298746952471
372,594,33587200,11.851011301211205
373,595,33587200,12.08141806450267
374,596,33587200,11.81539154279523
375,597,33587200,12.058650352562722
376,598,33587200,11.806486832683671
377,599,33587200,12.023012797933545
378,600,33587200,12.057399297604222
379,601,33587200,11.765855715953679
380,602,33587200,11.850609886257827
381,603,33587200,12.180118315471418
382,604,33587200,11.989498051856492
383,605,33587200,11.91180768150441
384,606,33587200,11.796004477165857
385,607,33587200,12.010901185920577
386,608,33587200,12.147550612383071
387,609,33587200,11.871922418525278
388,610,33587200,11.83257431557172
389,611,33587200,11.947191784598257
390,612,33587200,12.105380008707662
391,613,33587200,12.116979182600314
392,614,33587200,11.852621415685865
393,615,33587200,12.181527507376986
394,616,33587200,12.15106637300046
395,617,33587200,12.271973102444624
396,618,33587200,11.939988645578156
397,619,33587200,12.0679396488041
398,620,33587200,12.192564928370423
399,621,33587200,12.121877066196236
400,622,33587200,11.866821889204319
401,623,33587200,11.533012437737487
402,624,33587200,12.159794247383925
403,625,33587200,12.202487349626956
404,626,33587200,11.807283722202321
405,627,33587200,12.231500907333285
406,628,33587200,12.182658630785705
407,629,33587200,12.022186523719936
408,630,33587200,11.860921485736927
409,631,33587200,12.12145709245556
410,632,33587200,12.14741441760426
411,633,33587200,11.947463771337997
412,634,33587200,11.864277458607564
413,635,33587200,11.987717900022165
414,636,33587200,12.13238587598866
415,637,33587200,11.83697793923554
416,638,33587200,11.845928720289686
417,639,33587200,11.892911672808959
418,640,33587200,12.152754661054972
419,641,33587200,11.745447691332298
420,642,33587200,11.976095731176814
421,643,33587200,12.156132644995411
422,644,33587200,12.144036885660816
423,645,33587200,12.211719938176422
424,646,33587200,11.965851550506764
425,647,33587200,12.195965083007742
426,648,33587200,12.088510099192353
427,649,33587200,11.988676377625888
428,650,33603584,11.727554685234246
429,651,33603584,11.923161997555303
430,652,33603584,11.654273991891433
431,653,33603584,12.145183069107395
432,654,33603584,11.72729274657057
433,655,33603584,12.066473432172106
434,656,33603584,11.692428672483725
435,657,33603584,12.179412608986867
436,658,33603584,11.68930497448629
437,659,33603584,11.724019500268124
438,660,33603584,11.7452626376557
439,661,33603584,11.901271068935364
440,662,33603584,11.625120173970743
441,663,33603584,11.796053938724631
442,664,33603584,12.012090881793615
443,665,33603584,12.041977583526037
444,666,33603584,11.813176262969819
445,667,33603584,11.832477037407415
446,668,33603584,12.00549907538935
447,669,33603584,11.720878902400955
448,670,33603584,11.751834716882684
449,671,33603584,11.808655524139448
450,672,33603584,11.97401346077646
451,673,33603584,11.853851949891775
452,674,33603584,11.746970671012582
453,675,33603584,11.675913977149616
454,676,33603584,12.067305399543216
455,677,33603584,11.728995557069613
456,678,33603584,11.725062649120959
457,679,33603584,11.850369773213052
458,680,33603584,12.023368645826476
459,681,33603584,11.724150395037306
460,682,33603584,11.764341951545184
461,683,33603584,11.96787253865638
462,684,33603584,11.989320652648983
463,685,33603584,12.107096019207876
464,686,33603584,11.804942722273728
465,687,33603584,11.884035501184034
466,688,33603584,12.053173215397004
467,689,33603584,11.969918812710699
468,690,33603584,11.738697905040569
469,691,33603584,11.567618254233262
470,692,33603584,11.942285111548948
471,693,33603584,11.543077537162342
472,694,33603584,11.67656312003408
473,695,33603584,12.018414825708653
474,696,33603584,11.98179674265382
475,697,33603584,12.347399661438077
476,698,33603584,11.710814166761633
477,699,33603584,12.062592434115116
478,700,33603584,12.085081407359029
479,701,33603584,11.86322175680518
480,702,33603584,11.7224489909827
481,703,33603584,12.163048545657242
482,704,33603584,12.046121687983518
483,705,33603584,12.115197471078051
484,706,33603584,11.98139089112074
485,707,33603584,12.049996414074043
486,708,33603584,11.990420105218988
487,709,33603584,12.17489398827277
488,710,33603584,11.90167572596906
489,711,33603584,12.219947227095133
490,712,33603584,12.03011791122147
491,713,33603584,12.341740124630935
492,714,33619968,11.797568687917517
493,715,33619968,12.053105416373883
494,716,33619968,11.682649997272193
495,717,33619968,12.122223279883004
496,718,33619968,11.875579694505543
497,719,33619968,12.292137813935174
498,720,33619968,11.782217315880775
499,721,33619968,12.153775410163197
500,722,33619968,11.747831610991955
501,723,33619968,11.693962925023957
502,724,33619968,11.819201897261436
503,725,33619968,12.063346623838516
504,726,33619968,11.801676878765912
505,727,33619968,11.732224459094036
506,728,33619968,12.10546237005159
507,729,33619968,12.010254094636034
508,730,33619968,11.885386864054306
509,731,33619968,11.915311189451856
510,732,33619968,12.079435478075911
511,733,33619968,12.02909311571698
512,734,33619968,11.88095148064997
513,735,33619968,11.709863985028635
514,736,33619968,12.132862549910069
515,737,33619968,12.287537420923115
516,738,33619968,11.850397228372035
517,739,33619968,12.104765004594197
518,740,33619968,12.125021278314584
519,741,33619968,12.250429330222989
520,742,33619968,11.904784297284206
521,743,33619968,12.122218909020894
522,744,33619968,12.207868018369192
523,745,33619968,12.170529480076803
524,746,33619968,11.827584472146926
525,747,33619968,11.960621696773403
526,748,33619968,12.102812808690418
527,749,33619968,12.169265155943743
528,750,33619968,11.9249134095105
529,751,33619968,12.192704389377758
530,752,33619968,12.193128900571866
531,753,33619968,12.160809313119797
532,754,33619968,11.963754273790173
533,755,33619968,12.223487151146726
534,756,33619968,12.19539345960644
535,757,33619968,12.332972979318223
536,758,33619968,11.888349830408744
537,759,33619968,12.153353634731006
538,760,33619968,12.162639461688734
539,761,33619968,12.216811176684983
540,762,33619968,11.871419900148622
541,763,33619968,11.991337124530261
542,764,33619968,12.152088484059856
543,765,33619968,11.957214329180788
544,766,33619968,11.907752726530866
545,767,33619968,12.186764334867373
546,768,33619968,12.13314278290243
547,769,33619968,12.16869695644746
548,770,33619968,12.057670292339607
549,771,33619968,12.340215891585117
550,772,33619968,12.156306677658698
551,773,33619968,12.243572300511886
552,774,33619968,12.070549232054555
553,775,33619968,12.314469808825184
554,776,33619968,12.095010317823501
555,777,33619968,12.287676640088419
556,778,33636352,11.815794132772783
557,779,33636352,12.21481079334068
558,780,33636352,11.816586961630922
559,781,33636352,12.293664786599184
560,782,33636352,11.888489146335816
561,783,33636352,12.316573189946624
