idx,og Index,data (B),bandwidth (GB/s)
0,0,67305472,10.985628114653865
1,1,67305472,12.354120709586496
2,2,67305472,11.211488959580121
3,3,67305472,12.353757898512127
4,5,67305472,12.330799099063778
5,7,67305472,12.355354426657199
6,9,67305472,12.353975582599528
7,11,67305472,12.353903020384669
8,13,67305472,12.354410973789852
9,15,67305472,12.351799086885364
10,16,67305472,10.947831399536357
11,17,67305472,12.352887238871467
12,18,67305472,11.105232581258367
13,19,67305472,12.353830459022207
14,21,67305472,12.328847560790198
15,23,67305472,12.353395108746925
16,25,67305472,12.352814689440983
17,27,67305472,12.35448354197191
18,29,67305472,12.353322553350818
19,31,67305472,12.353395108746925
20,32,67305472,10.999186159082694
21,33,67305472,12.353683071378843
22,34,67305472,11.215077704338599
23,35,67305472,12.352739873733327
24,37,67305472,12.353975582599528
25,39,67305472,12.353830459022207
26,41,67305472,12.353395108746925
27,43,67305472,12.354265839983231
28,45,67305472,12.354773823225454
29,47,67305472,12.354701251633239
30,48,67321856,10.981935442615912
31,49,67321856,12.355531443887209
32,50,67321856,10.970768238969727
33,51,67321856,12.350164095621242
34,53,67321856,12.354152895860592
35,55,67321856,12.35437054088703
36,57,67321856,12.355894270818613
37,59,67321856,12.353645087286042
38,61,67321856,12.353352662898008
39,63,67321856,12.353282392433805
40,64,67321856,10.95756696635296
41,65,67321856,12.353935258502455
42,66,67321856,10.973570431118048
43,67,67321856,12.352992251885468
44,69,67321856,12.356690297053474
45,71,67321856,12.355313757956313
46,73,67321856,12.304945128257057
47,75,67321856,12.353354929700485
48,77,67321856,12.354805853946436
49,79,67321856,12.354080349222533
50,80,67321856,10.976606711132764
51,81,67321856,12.35320758926974
52,82,67321856,11.162807849631905
53,83,67321856,12.353862714420407
54,85,67321856,12.352919718877905
55,87,67321856,12.35190434620193
56,89,67321856,12.355241197683915
57,91,67321856,12.355749137488974
58,93,67321856,12.354588193582178
59,95,67321856,12.354443090933314
60,96,67321856,11.053657030831825
61,97,67321856,12.355313757956313
62,98,67321856,10.8534395604059
63,99,67321856,12.355096079695882
64,101,67321856,12.355313757956313
65,103,67321856,12.354515641831691
66,105,67321856,12.309192841264426
67,107,67321856,12.35313732045599
68,109,67321856,12.267989502884957
69,111,67321856,12.345598270050132
70,112,67321856,11.075304068926897
71,113,67321856,12.296602234880545
72,114,67321856,10.938936193410399
73,115,67321856,12.330258668214928
74,117,67321856,12.315461771350694
75,119,67321856,12.353429734648966
76,121,67321856,12.31618274720872
77,123,67321856,12.342266624475807
78,125,67321856,12.32642972206242
79,127,67321856,12.307392604872291
80,128,67321856,10.912947972512189
81,129,67321856,12.357055460210534
82,130,67321856,10.97139579131781
83,131,67321856,12.341687391403662
84,133,67321856,12.286691791759822
85,135,67321856,12.353864981410075
86,137,67321856,12.355458881057945
87,138,67321856,11.012517805696907
88,141,67321856,12.325851974480404
89,143,67321856,12.353935258502455
90,144,67321856,11.007159361353837
91,145,67321856,12.355458881057945
92,146,67321856,11.020536396560745
93,147,67321856,12.340456701625442
94,149,67321856,12.353645087286042
95,151,67321856,12.318778959402946
96,153,67321856,12.354443090933314
97,155,67321856,12.353282392433805
98,157,67321856,12.354225443350686
99,159,67321856,12.354805853946436
100,160,67321856,10.920935547330293
101,161,67321856,12.353935258502455
102,162,67321856,10.938426092918816
103,163,67321856,12.356982879479421
104,165,67321856,12.353862714420407
105,167,67321856,12.352989985216087
106,169,67321856,12.355023521980215
107,171,67321856,12.265629181918571
108,173,67321856,12.353645087286042
109,175,67321856,12.349221664618915
110,176,67321856,11.009175368123461
111,177,67321856,12.354515641831691
112,178,67321856,10.970424992846281
113,179,67321856,12.320435968898162
114,181,67321856,12.353282392433805
115,183,67321856,12.354588193582178
116,185,67321856,12.352557066616464
117,187,67321856,12.353572546611797
118,189,67321856,12.354295724544237
119,191,67321856,12.353935258502455
120,192,67321856,10.868241700319565
121,193,67321856,12.353067052441654
122,194,67321856,10.95152068539143
123,195,67321856,12.354950965116762
124,197,67321856,12.354878409105508
125,199,67321856,12.270637003845314
126,201,67321856,12.354443090933314
127,203,67321856,12.239158044770232
128,205,67321856,12.354950965116762
129,207,67321856,12.352339485480163
130,208,67321856,10.936945826732817
131,209,67321856,12.353645087286042
132,210,67321856,10.959509538026756
133,211,67321856,12.314957138472131
134,213,67321856,12.325996406298461
135,215,67321856,12.313875921548945
136,217,67321856,12.325707546047113
137,219,67321856,12.311281775379797
138,221,67321856,12.304583038384232
139,223,67321856,12.267061806284163
140,224,67321856,10.997491001075705
141,225,67321856,12.324263447850141
142,226,67321856,10.887026602456759
143,227,67321856,12.27385847785379
144,229,67321856,12.355966838762015
145,231,67321856,12.354225443350686
146,233,67321856,12.297608535459501
147,235,67321856,12.353572546611797
148,237,67321856,12.330692283712397
149,239,67321856,12.318851092032748
150,240,67321856,10.951693496383047
151,241,67321856,12.355823971436296
152,242,67321856,10.996917942254377
153,243,67321856,12.353717628812214
154,245,67321856,12.32592418996633
155,247,67321856,12.318634696677536
156,249,67321856,12.355386319080985
157,251,67321856,12.353212122769047
158,253,67321856,12.353354929700485
159,255,67321856,12.352699858402916
160,256,67321856,10.98210742332149
161,257,67321856,12.329174762882369
162,258,67321856,10.945993611761253
163,259,67321856,12.293871677577815
164,261,67321856,12.351976867285961
165,263,67321856,12.354733299639536
166,265,67321856,12.35488067646796
167,267,67321856,12.30422546743619
168,269,67321856,12.354152895860592
169,271,67321856,12.355021254565331
170,272,67321856,10.985318718845601
171,273,67321856,12.327802089662327
172,274,67321856,10.988818874914386
173,275,67321856,12.354805853946436
174,277,67321856,12.353427467819035
175,279,67321856,12.34943913592997
176,281,67321856,12.353645087286042
177,283,67321856,12.256411180699343
178,285,67321856,12.354878409105508
179,287,67321856,12.255697185581857
180,288,67321856,11.016208368814844
181,289,67321856,12.326283023210381
182,290,67321856,10.970424992846281
183,291,67321856,12.23303322161822
184,293,67321856,12.346105417282091
185,295,67321856,12.306096760690307
186,297,67321856,12.306384702481427
187,299,67321856,12.307392604872291
188,301,67321856,12.352412011673918
189,303,67321856,12.355313757956313
190,304,67321856,11.035105321537745
191,305,67321856,12.326933038510717
192,306,67321856,10.958139498543838
193,307,67321856,12.326646391369389
194,309,67321856,12.304153505983946
195,311,67321856,12.293727997627515
196,313,67321856,12.280165380008835
197,315,67321856,12.310489337603485
198,317,67321856,12.354152895860592
199,319,67321856,12.355458881057945
200,320,67321856,11.014247449221662
201,321,67321856,12.312864705063626
202,322,67321856,10.990311422752256
203,323,67321856,12.353790171190331
204,325,67321856,12.30674239894061
205,327,67321856,12.25962518850111
206,329,67321856,12.316613119904924
207,331,67321856,12.255913606565436
208,333,67321856,12.304441356843453
209,335,67321856,12.260839807947946
210,336,67321856,11.058306979140093
211,337,67321856,12.297318757917369
212,338,67321856,11.271961216949803
213,339,67321856,12.353570279729455
214,340,67321856,12.33524482825404
215,342,67321856,12.296599988858112
216,344,67321856,12.294805679123185
217,346,67321856,12.302570566966207
218,348,67321856,12.292147739800738
219,350,67321856,12.273860715576252
220,352,67321856,12.294228646990964
221,353,67321856,12.352557066616464
222,354,67321856,12.317480716501931
223,355,67321856,12.332643930920046
224,356,67321856,12.297249123488962
225,358,67321856,12.303503642244738
226,360,67321856,12.314812965245453
227,362,67321856,12.294661977340606
228,364,67321856,12.300628425654326
229,366,67321856,12.314308385534781
230,368,67321856,12.241650649796979
231,369,67321856,12.350744124660556
232,370,67321856,12.318055425695832
233,371,67321856,12.334232359025462
234,372,67321856,12.304295180895751
235,374,67321856,12.305446691668042
236,376,67321856,12.319139630999604
237,378,67321856,12.291070524189116
238,380,67321856,12.27042229903682
239,382,67321856,12.312794894464407
240,384,67321856,12.293368812444374
241,385,67321856,12.335608724985443
242,386,67321856,12.308256652619455
243,387,67321856,12.35030909777352
244,388,67321856,12.297893833667716
245,390,67321856,12.326501944318412
246,392,67321856,12.315245495053
247,394,67321856,12.313008832675909
248,396,67321856,12.30019467463027
249,398,67321856,11.104945605906375
250,400,67321856,10.573227792436235
251,401,67321856,12.353862714420407
252,402,67321856,10.808383812274531
253,403,67321856,12.352776922008456
254,405,67321856,12.355384051532937
255,407,67321856,12.354660746184788
256,409,67321856,12.352919718877905
257,411,67321856,12.352557066616464
258,413,67321856,12.353209856018978
259,415,67321856,12.353645087286042
260,416,67321856,10.931263053787898
261,417,67321856,12.353427467819035
262,418,67321856,10.950724400052833
263,419,67321856,12.355241197683915
264,421,67321856,12.35437054088703
265,423,67321856,12.353209856018978
266,425,67321856,12.355096079695882
267,427,67321856,12.354803586611448
268,429,67321856,12.354443090933314
269,431,67321856,12.354805853946436
270,432,67321856,10.926777836911462
271,433,67321856,12.344946284827394
272,434,67321856,10.933137715897939
273,435,67321856,12.353500006789467
274,437,67321856,12.352849453339095
275,439,67321856,12.353717628812214
276,441,67321856,12.354007803436492
277,443,67321856,12.353500006789467
278,445,67321856,12.354443090933314
279,447,67321856,12.354152895860592
280,448,67321856,10.932628156035417
281,449,67321856,12.35749096250306
282,450,67321856,10.960649714814426
283,451,67321856,12.35437054088703
284,452,67321856,10.884379293023114
285,455,67321856,12.347119836755475
286,457,67321856,12.218257951676053
287,459,67321856,12.351179182195418
288,461,67321856,12.355168638263775
289,463,67321856,12.35183182596947
290,464,67321856,10.889900672026814
291,465,67321856,12.354443090933314
292,466,67321856,10.923146941319233
293,467,67321856,12.352702124965825
294,469,67321856,12.353935258502455
295,471,67321856,12.354805853946436
296,472,67321856,10.872285657392586
297,475,67321856,12.352992251885468
298,477,67321856,12.352412011673918
299,479,67321856,12.356111977206062
300,480,67321856,10.83415477737327
301,481,67321856,12.354950965116762
302,482,67321856,10.818721979687975
303,483,67321856,12.354297991692826
304,485,67321856,12.354515641831691
305,487,67321856,12.353427467819035
306,489,67321856,12.354152895860592
307,491,67321856,12.35350227364602
308,493,67321856,12.353642820377077
309,495,67321856,12.35437054088703
310,496,67321856,10.863022706028278
311,497,67321856,12.354660746184788
312,498,67321856,10.861787085800913
313,499,67321856,12.25391479213514
314,501,67321856,12.354297991692826
315,502,67321856,10.86908218846779
316,505,67321856,12.352919718877905
317,507,67321856,12.353354929700485
318,509,67321856,12.355313757956313
319,511,67321856,12.355604007568791
320,512,67321856,10.849297707834792
321,513,67321856,12.353282392433805
322,514,67321856,10.898701371025957
323,515,67321856,12.270637003845314
324,517,67321856,12.353282392433805
325,518,67223552,11.139769543901746
326,519,67223552,12.352797240705112
327,520,67223552,11.514748702432444
328,521,67223552,12.35265196799579
329,522,67223552,11.150532865130799
330,523,67223552,12.353233079335467
331,524,67223552,11.573043704610654
332,525,67223552,12.35257933292246
333,526,67223552,11.180085664002458
334,527,67223552,12.353596301688212
335,528,67223552,11.6038581048459
336,529,67223552,12.355994105020768
337,530,67223552,11.17830094147516
338,531,67223552,12.353233079335467
339,532,67223552,11.600846357997836
340,533,67223552,12.355558071546701
341,534,67223552,11.197964283679655
342,535,67223552,12.353668948721936
343,536,67223552,11.581084584826618
344,537,67223552,12.353741596610085
345,538,67223552,11.18002616406994
346,539,67223552,12.353959545401251
347,540,67223552,11.586002738647068
348,541,67223552,12.353959545401251
349,542,67223552,11.282161482131173
350,543,67223552,12.354395466055143
351,544,67223552,11.647866284986153
352,545,67223552,12.354688367523185
353,546,67223552,11.247970511193415
354,547,67223552,12.354758756767467
355,548,67223552,11.574193426198615
356,549,67223552,12.353233079335467
357,550,67223552,11.185502810204925
358,551,67223552,12.354395466055143
359,552,67223552,11.687723045156876
360,553,67223552,12.35570341261862
361,554,67223552,11.188302733283425
362,555,67223552,12.353453280337455
363,556,67223552,11.691495781927037
364,557,67223552,12.354758756767467
365,558,67223552,11.209257203343057
366,559,67223552,12.353598571895082
367,560,67223552,11.599693337016786
368,561,67223552,12.355485402292977
369,562,67223552,11.208597450370563
370,563,67223552,12.353598571895082
371,564,67223552,11.677717583712234
372,565,67223552,12.35301515617598
373,566,67223552,11.262924285046502
374,567,67223552,12.355923701699428
375,568,67223552,10.449757617916921
376,569,67223552,12.329018099333403
377,570,67223552,11.27822061161233
378,571,67223552,12.353743866870358
379,572,67223552,10.490147709454803
380,573,67223552,12.352508968509749
381,574,67223552,11.285008116651474
382,575,67223552,12.35417977230329
383,576,67223552,10.519827935881578
384,577,67223552,12.353596301688212
385,578,67223552,11.308641468558609
386,579,67223552,12.304679393277008
387,580,67223552,11.67700356336498
388,581,67223552,12.35403219670726
389,582,67223552,11.279980602545999
390,583,67223552,12.352797240705112
391,584,67223552,11.719474795830932
392,585,67223552,12.355633012609909
393,586,67223552,11.30876322279021
394,587,67223552,12.355412733894058
395,588,67223552,11.671489076223192
396,589,67223552,12.354395466055143
397,590,67223552,11.19515952342649
398,591,67223552,12.352288801170998
399,592,67223552,11.692534931820052
400,593,67223552,12.353889165263405
401,594,67239936,11.067888656670771
402,595,67239936,12.356025883730494
403,596,67239936,11.075178860026341
404,597,67239936,12.355226703190937
405,598,67239936,11.066256558664135
406,599,67239936,12.313809041648147
407,600,67239936,10.947825680621142
408,601,67239936,12.354066713126135
409,602,67239936,10.484901587004572
410,603,67239936,12.353122537617443
411,604,67239936,10.423527679189432
412,605,67239936,12.354500265133266
413,606,67239936,10.451942160476326
414,607,67239936,12.353701281927385
415,608,67239936,11.036323226706221
416,609,67239936,12.35435498777241
417,610,67239936,10.535424772780724
418,611,67239936,12.344703971917792
419,612,67239936,10.496740449892847
420,613,67239936,12.352684543661196
421,614,67239936,10.41247404428217
422,615,67239936,12.251491808219148
423,616,67239936,10.466623828807961
424,617,67239936,12.35333814190479
425,618,67239936,10.857653029835483
426,619,67239936,12.303788963102871
427,620,67239936,10.886341724275772
428,621,67239936,12.32688646090793
429,622,67239936,10.949253645792284
430,623,67239936,12.30436534557476
431,624,67239936,10.895262144404814
432,625,67239936,12.317781478245099
433,626,67239936,11.014340114431961
434,627,67239936,12.266582797505963
435,628,67239936,10.937342177775898
436,629,67239936,12.25670865863284
437,630,67239936,11.019825872163343
438,631,67239936,12.34455892485472
439,632,67239936,10.975561885970267
440,633,67239936,12.24420994360447
441,634,67239936,11.01220252776473
442,635,67239936,12.353049914709862
443,636,67239936,11.050425090076498
444,637,67239936,12.353267785994314
445,638,67239936,10.956104498264033
446,639,67239936,12.354645545910854
447,640,67239936,11.091432651895781
448,641,67239936,12.354357257704898
449,642,67239936,10.840847850554804
450,643,67239936,12.354139347989648
451,644,67239936,10.803112918986537
452,645,67239936,12.3569727740199
453,646,67239936,10.971836749879088
454,647,67239936,12.353701281927385
455,648,67239936,10.925172570446632
456,649,67239936,12.314749472263767
457,650,67239936,10.954676530446665
458,651,67239936,12.3045094496307
459,652,67239936,10.924150193236118
460,653,67239936,12.353848813660091
461,654,67239936,10.967140953013487
462,655,67239936,12.355154055540917
463,656,67239936,10.880142911233872
464,657,67239936,12.354064443300413
465,658,67239936,10.987326978848232
466,659,67239936,12.319659182643703
467,660,67239936,10.968629428971695
468,661,67239936,12.355226703190937
469,662,67239936,11.005859594625848
470,663,67239936,12.26686700379299
471,664,67239936,11.045083003286425
472,665,67239936,12.34825642232987
473,666,67239936,11.004013424778234
474,667,67239936,12.352394077752553
475,668,67239936,11.00522552304741
476,669,67239936,12.356025883730494
477,670,67239936,11.111667906897884
478,671,67239936,12.353485664964111
479,672,67239936,10.945318283777668
480,673,67239936,12.357188512728982
481,674,67239936,11.050136343758828
482,675,67239936,12.34985535190601
483,676,67239936,11.032323228345682
484,677,67239936,12.354429895984936
485,678,67239936,10.965710107054397
486,679,67239936,12.353628652214892
487,680,67239936,11.019247976579651
488,681,67239936,12.347458246490318
489,682,67239936,11.027403714716662
490,683,67239936,12.353047645257758
491,684,67239936,11.009029246322843
492,685,67239936,12.306022746031926
493,686,67239936,11.014049642550832
494,687,67239936,12.30688765396894
495,688,67239936,11.046765121629534
496,689,67239936,12.29284794697909
497,690,67239936,11.009433016934633
498,691,67239936,12.354357257704898
499,692,67239936,11.063226796200656
500,693,67239936,12.355953226681976
501,694,67239936,11.008683180798638
502,695,67239936,12.352759431618207
503,696,67239936,11.042587081573167
504,697,67239936,12.354209713828165
505,698,67239936,11.032267115001979
506,699,67239936,12.3535560233564
507,700,67239936,10.993937959075827
508,701,67239936,12.354139347989648
509,702,67239936,11.015955128780636
510,703,67239936,12.354209713828165
511,704,67239936,11.02612886742986
512,705,67239936,12.332746775306457
513,706,67239936,11.02063502782041
514,707,67239936,12.35283205111035
515,708,67239936,11.0569395105573
516,709,67239936,12.240358342110696
517,710,67239936,10.98009097285103
518,711,67239936,12.353413037786892
519,712,67239936,11.002286691000222
520,713,67239936,12.35428235037322
521,714,67239936,11.024566903313604
522,715,67239936,12.35435498777241
523,716,67239936,10.985201658041653
524,717,67239936,12.353483395351896
525,718,67239936,11.061246694495281
526,719,67239936,12.352466692949056
527,720,67239936,11.005166082582688
528,721,67239936,12.353265516462157
529,722,67239936,11.058219674275586
530,723,67239936,12.354647815950115
531,724,67239936,11.055485138793001
532,725,67239936,12.354064443300413
533,726,67239936,10.994053003027455
534,727,67239936,12.339772018641074
535,728,67239936,11.03724894502578
536,729,67239936,12.353773912493896
537,730,67239936,11.020636834104348
538,731,67239936,12.352757162272836
539,732,67239936,11.04078839579852
540,733,67239936,12.354790830105296
541,734,67239936,10.986522706700086
542,735,67239936,12.353628652214892
543,736,67239936,11.090437457476858
544,737,67239936,12.352466692949056
545,738,67239936,11.042063008790961
546,739,67239936,12.353195161378922
547,740,67239936,11.076815415831526
548,741,67239936,12.305157959655002
549,742,67239936,11.050601250901643
550,743,67239936,12.35333814190479
551,744,67239936,11.04955526483709
552,745,67239936,12.355372001053993
553,746,67239936,11.087043431934573
554,747,67239936,12.336584318725977
555,748,67239936,10.987556792519303
556,749,67239936,12.335208321026855
557,750,67239936,11.033251896567595
558,751,67239936,12.35319289187345
559,752,67239936,10.98451254137166
560,753,67239936,12.30623896161892
