idx,og Index,data (B),bandwidth (GB/s)
0,1,33767424,12.3430225715069
1,3,33767424,12.347355372807419
2,5,33767424,12.345621887309546
3,7,33767424,12.346777490220914
4,9,33767424,12.34417317523885
5,11,33767424,12.340568666963419
6,13,33767424,12.34576181208807
7,15,33767424,12.344899745332745
8,17,33767424,12.345906253896095
9,19,33767424,12.343451202728414
10,21,33767424,12.298279894074486
11,23,33767424,12.31176780502389
12,25,33767424,12.343739981598127
13,26,33783808,11.976370427300495
14,27,33783808,12.34540132648773
15,29,33783808,12.300376433562334
16,31,33783808,12.345685545007157
17,33,33783808,12.281774236410955
18,35,33783808,12.32550701996777
19,37,33783808,12.224463322240407
20,39,33783808,12.135376454204176
21,41,33783808,12.345541178409505
22,43,33783808,12.34640742864431
23,45,33783808,12.34511260996253
24,47,33783808,12.344968256763936
25,49,33783808,12.348578099790705
26,51,33783808,12.279631449033097
27,53,33783808,12.329969434027683
28,55,33783808,12.127012729774348
29,57,33783808,12.223892737119684
30,59,33783808,12.285061296564244
31,61,33783808,12.347278313123553
32,63,33783808,12.303960241346044
33,65,33783808,12.345685545007157
34,67,33783808,12.34857358616911
35,69,33783808,12.315442472988732
36,71,33783808,12.34640742864431
37,73,33783808,12.347129396707146
38,75,33783808,12.349006908889004
39,77,33783808,12.350311574425088
40,79,33783808,12.343953368646165
41,81,33783808,12.34857358616911
42,83,33783808,12.341937619231672
43,85,33783808,12.347418207574789
44,87,33783808,12.348284721250069
45,89,33783808,12.346411940682506
46,90,33800192,11.992926342561448
47,91,33800192,12.318253762603817
48,92,33800192,11.879891464803386
49,93,33800192,12.345176478408664
50,94,33800192,11.964940798658802
51,95,33800192,12.343445284337681
52,96,33800192,11.790907238878237
53,97,33800192,12.310931571641747
54,98,33800192,12.255082657887533
55,99,33800192,12.084859544696565
56,100,33800192,12.221900726186503
57,101,33800192,12.309931727612623
58,102,33800192,12.317535515662678
59,103,33800192,12.230108547024319
60,104,33800192,11.474020317726717
61,105,33800192,12.247688895974955
62,106,33800192,11.663696811860463
63,107,33800192,12.345465057966743
64,108,33800192,11.746843748751036
65,109,33800192,12.325584668810139
66,110,33800192,12.01844429589384
67,111,33800192,12.340849403425553
68,112,33800192,12.069255709653921
69,113,33800192,12.347052486729734
70,114,33800192,12.239320077042098
71,115,33800192,12.316817352475065
72,116,33800192,12.023095595161195
73,117,33800192,12.347923039997545
74,118,33800192,12.19833367377799
75,119,33800192,12.34950658886278
76,120,33800192,12.208335139289812
77,121,33800192,12.346330877596321
78,122,33800192,12.156208550441505
79,123,33800192,12.345325275558514
80,124,33800192,12.184679762839894
81,125,33800192,12.345753651016748
82,126,33800192,12.043663376532306
83,127,33800192,12.346768343065795
84,128,33800192,12.021868294423129
85,129,33800192,12.346046767143923
86,130,33800192,11.928862035376993
87,131,33800192,12.319834200758942
88,132,33800192,12.02789173962538
89,133,33800192,12.281158448208142
90,134,33800192,11.928453682395078
91,135,33800192,12.345902462080398
92,136,33800192,12.148942311182966
93,137,33800192,12.348067392300257
94,138,33800192,12.151597872116303
95,139,33800192,12.306341698564061
96,140,33800192,11.976743988275613
97,141,33800192,12.345753651016748
98,142,33800192,12.052596089489661
99,143,33800192,12.34777418022022
100,144,33800192,11.926568043683453
101,145,33800192,12.317104607700625
102,146,33800192,12.071186740912376
103,147,33800192,12.327742478569727
104,148,33800192,12.167835984262542
105,149,33800192,12.34748549270023
106,150,33800192,12.074364804498211
107,151,33800192,12.336093123105115
108,152,33800192,12.18538259901198
109,153,33800192,12.205941226199002
110,154,33652736,12.001791741441439
111,155,33652736,12.232132089016512
112,156,33652736,11.996046082459785
113,157,33652736,12.02924817770813
114,158,33652736,12.097750504631103
115,159,33652736,12.346157373743747
116,160,33652736,11.950375704890556
117,161,33652736,12.298219077609888
118,162,33652736,12.02305953234994
119,163,33652736,12.346877594605532
120,164,33652736,12.151283273394283
121,165,33652736,12.310311690772552
122,166,33652736,12.059461750963155
123,167,33652736,12.314347848201502
124,168,33652736,12.130403673501315
125,169,33652736,12.346877594605532
126,170,33669120,11.806998398105781
127,171,33669120,12.34665562638271
128,172,33669120,11.864916143473739
129,173,33669120,12.344776963244822
130,174,33669120,11.81429008542162
131,175,33669120,12.346945398818226
132,176,33669120,11.860235083259829
133,177,33669120,12.311405149424582
134,178,33669120,11.875227493968765
135,179,33669120,12.344632126214055
136,180,33669120,11.852352508807652
137,181,33669120,12.347235184855814
138,182,33669120,11.84994974110333
139,183,33669120,12.348398993911093
140,184,33669120,11.860097215182027
141,185,33669120,12.318184046601782
142,186,33669120,11.753576870646185
143,187,33669120,12.346225520502164
144,188,33669120,11.88260372404252
145,189,33669120,12.345501199381939
146,190,33669120,12.049714693091078
147,191,33669120,12.311261094410863
148,192,33669120,12.159732572791462
149,193,33669120,12.346225520502164
150,194,33669120,12.05717117834623
151,195,33669120,12.345935781855143
152,196,33669120,12.130572616182903
153,197,33669120,11.149269003427323
154,198,33669120,12.051927374411662
155,199,33669120,11.910582335511513
156,200,33669120,12.16268440025417
157,201,33669120,12.348543919347634
158,202,33669120,12.065328635603935
159,203,33669120,12.310684908065994
160,204,33669120,12.165356336466347
161,205,33669120,12.343758649930727
162,206,33669120,11.891059928340983
163,207,33669120,12.345790917631218
164,208,33669120,12.107261562161643
165,209,33669120,12.227562816342436
166,210,33669120,12.070726915520629
167,211,33669120,12.345211494729957
168,212,33669120,11.99162736726859
169,213,33669120,12.347235184855814
170,214,33669120,12.062843071816815
171,215,33669120,12.346510745265428
172,216,33669120,12.073774230657788
173,217,33669120,12.345935781855143
174,218,33669120,12.19185785667548
175,219,33669120,12.254336354110443
176,220,33669120,12.047507134944194
177,221,33669120,12.326694122682186
178,222,33669120,12.177183188754888
179,223,33669120,12.338258138351145
180,224,33669120,11.976471860424747
181,225,33669120,12.346076122314054
182,226,33669120,12.032764856403585
183,227,33669120,12.345351818722818
184,228,33669120,12.010243396601302
185,229,33669120,12.329298650735932
186,230,33669120,12.13938994275553
187,231,33669120,12.317318815077348
188,232,33669120,12.046817438894884
189,233,33669120,12.30435041600901
190,234,33685504,11.704642279725125
191,235,33685504,12.345135279548904
192,236,33685504,11.743689147090077
193,237,33685504,12.346293601721161
194,238,33685504,11.860792261604635
195,239,33685504,12.283905862600998
196,240,33685504,11.779696911202311
197,241,33685504,12.32229836233124
198,242,33685504,11.719236551085679
199,243,33685504,12.345709888771161
200,244,33685504,11.828934084483699
201,245,33685504,12.345135279548904
202,246,33685504,11.738315959305922
203,247,33685504,12.344696440815422
204,248,33685504,11.876716694919796
205,249,33685504,12.304869820918148
206,250,33685504,11.894162078793716
207,251,33685504,12.347882123386066
208,252,33685504,11.763764376215516
209,253,33685504,12.346289076602291
210,254,33685504,12.217894186676183
211,255,33685504,12.34658321622856
212,256,33685504,12.206843194872803
213,257,33685504,12.342525326805468
214,258,33685504,12.081313176234977
215,259,33685504,12.344262156909954
216,260,33685504,12.201886491733921
217,261,33685504,12.348321188646972
218,262,33685504,12.192704466802931
219,263,33685504,11.981481534175789
220,264,33685504,12.036004927952984
221,265,33685504,12.214916951773828
222,266,33685504,12.148937213818096
223,267,33685504,12.085062354544629
224,268,33685504,12.087694670513427
225,269,33685504,12.084919279615413
226,270,33685504,11.925287958560023
227,271,33685504,12.325616811326299
228,272,33685504,12.028853103422664
229,273,33685504,12.301706290703029
230,274,33685504,11.988440590042394
231,275,33685504,12.344262156909954
232,276,33685504,12.06885143586192
233,277,33685504,12.347452141280451
234,278,33685504,12.120126520929889
235,279,33685504,12.34339368076068
236,280,33685504,12.034078600273794
237,281,33685504,12.240203078591211
238,282,33685504,12.214350023913443
239,283,33685504,12.3475924479391
240,284,33685504,12.112595652475646
241,285,33685504,12.344262156909954
242,286,33685504,12.149081808604603
243,287,33685504,12.34846151505676
244,288,33685504,11.966222968054907
245,289,33685504,12.346728028577566
246,290,33685504,12.236357038370041
247,291,33685504,12.348031492599356
248,292,33685504,12.063595703511803
249,293,33685504,12.346293601721161
250,294,33685504,12.185506319475067
251,295,33685504,12.345714413465478
252,296,33685504,12.09533357271095
253,297,33685504,12.348026966206465
254,298,33701888,12.027698559219536
255,299,33701888,12.260836316818269
256,300,33701888,11.843874845721965
257,301,33701888,12.343612263808872
258,302,33701888,11.771200245889043
259,303,33701888,12.348243460011153
260,304,33701888,11.770016288510593
261,305,33701888,12.348243460011153
262,306,33701888,11.923523900903731
263,307,33701888,12.346651094394202
264,308,33701888,11.774486152827063
265,309,33701888,12.344041769604225
266,310,33701888,11.748741612931676
267,311,33701888,12.342884432759037
268,312,33701888,11.86174972476651
269,313,33701888,12.347080811696317
270,314,33701888,11.901695384519764
271,315,33701888,12.347515082725549
272,316,33701888,11.686685380498199
273,317,33701888,12.347080811696317
274,318,33701888,12.186918780725497
275,319,33701888,12.344909914678375
276,320,33701888,12.175506781594121
277,321,33701888,12.346361617495242
278,322,33701888,12.227952549494129
279,323,33701888,12.345199323506323
280,324,33701888,12.215755121539955
281,325,33701888,12.339418241837585
282,326,33701888,12.179449252306828
283,327,33701888,12.34650635424795
284,328,33701888,12.159762389183685
285,329,33701888,12.344186451970435
286,330,33701888,12.17860862312823
287,331,33701888,12.345054617396174
288,332,33701888,12.092883933835179
289,333,33701888,11.731858845447858
290,334,33701888,12.052612248415814
291,335,33701888,12.346651094394202
292,336,33701888,12.041445978739642
293,337,33701888,12.34650635424795
294,338,33701888,12.046133032613882
295,339,33701888,12.345633462192058
296,340,33701888,12.102055187307414
297,341,33701888,12.344914436586958
298,342,33701888,12.049987843423292
299,343,33701888,12.347949384304181
300,344,33701888,12.145038957444655
301,345,33701888,12.346795837934119
302,346,33701888,12.19030422328782
303,347,33701888,12.349976529030164
304,348,33701888,12.159336837335227
305,349,33701888,12.344475826877876
306,350,33701888,12.133980442703457
307,351,33701888,12.345203845626928
308,352,33701888,12.059374600801599
309,353,33701888,12.345778181872797
310,354,33701888,12.131744079896558
311,355,33701888,12.345633462192058
312,356,33701888,12.13077029675529
313,357,33701888,12.346936061474771
314,358,33701888,12.059926964593394
315,359,33701888,12.34650635424795
316,360,33701888,11.98089988936952
317,361,33701888,12.346936061474771
318,362,33718272,11.754588428876215
319,363,33718272,12.277516683094573
320,364,33718272,11.86270223830266
321,365,33718272,12.345123188456206
322,366,33718272,11.728025260372373
323,367,33718272,12.345701758400688
324,368,33718272,11.759704694915586
325,369,33718272,12.343681519624605
326,370,33718272,11.791019692221829
327,371,33718272,12.345267825858365
328,372,33718272,11.763901880122766
329,373,33718272,12.344544672737477
330,374,33718272,11.737174078313101
331,375,33718272,12.347152941900227
332,376,33718272,11.701326044731756
333,377,33718272,12.346859060997415
334,378,33718272,11.88894060302443
335,379,33718272,12.345123188456206
336,380,33718272,11.70275559874706
337,381,33718272,12.346140242058263
338,382,33718272,11.976914486415522
339,383,33718272,12.294994346273517
340,384,33718272,12.139743820996568
341,385,33718272,12.091538931586784
342,386,33718272,12.01022417384515
343,387,33718272,11.930536094905698
344,388,33718272,12.198348363177768
345,389,33718272,12.206827267800454
346,390,33718272,12.01885474262934
347,391,33718272,12.331109450787684
348,392,33718272,12.184947493989426
349,393,33718272,12.334140653721008
350,394,33718272,12.073251007588063
351,395,33718272,12.31741546046371
352,396,33718272,12.120887242651605
353,397,33718272,12.346714386307188
354,398,33718272,12.019266031499791
355,399,33718272,12.342375721610258
356,400,33718272,11.819058191514308
357,401,33718272,12.344983074204766
358,402,33718272,11.932562702248193
359,403,33718272,12.346863582136116
360,404,33718272,11.916773400059375
361,405,33718272,12.348165807890487
362,406,33718272,11.876340251339062
363,407,33718272,12.345995584213012
364,408,33718272,12.08017173926128
365,409,33718272,12.345846409360476
366,410,33718272,12.001879394151667
367,411,33718272,12.348740140552858
368,412,33718272,12.113088589941958
369,413,33718272,12.345706278691875
370,414,33718272,11.92891530460624
371,415,33718272,12.321160265510494
372,416,33718272,12.066757064621655
373,417,33718272,12.34700826032284
374,418,33718272,12.098762827337286
375,419,33718272,12.344544672737477
376,420,33718272,12.007628012254676
377,421,33718272,12.34121925929125
378,422,33718272,11.917042951619699
379,423,33718272,12.34628038257855
380,424,33718272,11.932697833884935
381,425,33718272,12.346859060997415
382,426,33734656,11.898073716257587
383,427,33734656,12.348372988724742
384,428,33734656,11.716119370535647
385,429,33734656,12.346059157019246
386,430,33734656,11.6985674787258
387,431,33734656,12.343461649075484
388,432,33734656,11.8734165096903
389,433,33734656,12.343317124217444
390,434,33734656,11.687284098306531
391,435,33734656,12.344758007707364
392,436,33734656,11.921485255161612
393,437,33734656,12.350687687884488
394,438,33734656,11.75151672226356
395,439,33734656,12.34403978235335
396,440,33734656,11.652151326497059
397,441,33734656,12.345914571328713
398,442,33734656,11.786992701668469
399,443,33734656,12.345625410106939
400,444,33734656,11.744966428933264
401,445,33734656,12.34996425118403
402,446,33734656,12.10616643842892
403,447,33734656,12.330323731409294
404,448,33734656,12.230895262804683
405,449,33734656,12.343890727186439
406,450,33734656,12.199615003925542
407,451,33734656,12.341872061755721
408,452,33734656,12.163716239799465
409,453,33734656,12.34750520020658
410,454,33734656,12.181003579052577
411,455,33734656,11.681844735671111
412,456,33734656,12.073583938659054
413,457,33734656,12.157268037428983
414,458,33734656,12.208939850769658
415,459,33734656,12.345625410106939
416,460,33734656,12.173548541685312
417,461,33734656,12.346348338560196
418,462,33734656,11.88693431657447
419,463,33734656,12.344758007707364
420,464,33734656,12.090065545416785
421,465,33734656,12.346208264559598
422,466,33734656,12.117994948000035
423,467,33734656,12.345769989024651
424,468,33734656,11.98368766713747
425,469,33734656,12.345485352509561
426,470,33734656,12.071648388140286
427,471,33734656,12.345914571328713
428,472,33734656,12.010994613778587
429,473,33734656,12.34389524395679
430,474,33734656,12.183119553248558
431,475,33734656,12.345914571328713
432,476,33734656,12.085903039509322
433,477,33734656,12.342590034871328
434,478,33734656,12.04778162847241
435,479,33734656,12.346059157019246
436,480,33734656,12.048745503327323
437,481,33734656,12.347220483674857
438,482,33734656,12.033071576728334
439,483,33734656,12.34996425118403
440,484,33734656,11.953793078033003
441,485,33734656,12.34562992814686
442,486,33734656,12.220970145171464
443,487,33734656,12.34822834883451
444,488,33734656,12.10895188567396
445,489,33734656,12.295664636017644
446,490,33751040,11.952280176895378
447,491,33751040,12.349307417296036
448,492,33751040,11.640180180988015
449,493,33751040,12.345987183979902
450,494,33751040,11.812660822233857
451,495,33751040,12.345120151809208
452,496,33751040,11.762727139974928
453,497,33751040,12.34641622931216
454,498,33751040,11.639024117728809
455,499,33751040,12.348439918733305
456,500,33751040,11.767582929267325
457,501,33751040,12.348295347488618
458,502,33751040,11.709056771737323
459,503,33751040,12.34554913688067
460,504,33751040,11.822322449075383
461,505,33751040,12.136859278981298
462,506,33751040,11.802874637050932
463,507,33751040,12.263441862357917
464,508,33751040,11.81835244287447
465,509,33751040,12.276145474570248
466,510,33751040,12.198195228719053
467,511,33751040,12.284438407359808
468,512,33751040,12.127927546579688
469,513,33751040,12.347721613737122
470,514,33751040,12.255034848614134
471,515,33751040,12.345260133134499
472,516,33751040,12.207517790778635
473,517,33751040,12.348006215154543
474,518,33751040,12.240954032372427
475,519,33751040,12.345693643828021
476,520,33751040,12.22775604222739
477,521,33751040,12.346709803826887
478,522,33751040,12.21727473035043
479,523,33751040,12.34583815415837
480,524,33751040,12.175669109060692
481,525,33751040,12.34641622931216
482,526,33751040,11.955396233900563
483,527,33751040,12.345693643828021
484,528,33751040,11.993188789361321
485,529,33751040,12.346276221768138
486,530,33751040,11.965975840464244
487,531,33751040,12.296043164157137
488,532,33751040,12.004659442751988
489,533,33751040,12.295756473561841
490,534,33751040,12.123327256889878
491,535,33751040,12.344975658286973
492,536,33751040,12.116781350712031
493,537,33751040,12.322183591592259
494,538,33751040,12.150277197782417
495,539,33751040,12.346849821204833
496,540,33751040,12.093024922329342
497,541,33751040,12.349452012240034
498,542,33751040,12.16976863007964
499,543,33751040,12.341653240580593
500,544,33751040,12.124720915487012
501,545,33751040,12.331548023779607
502,546,33751040,12.21486939902161
503,547,33751040,12.347432508269781
504,548,33751040,12.108013787284358
505,549,33751040,12.329962273304647
506,550,33751040,12.184103898504308
507,551,33751040,12.345404633316203
508,552,33751040,11.950519645694829
509,553,33751040,12.347427991104272
510,554,33767424,11.99206055795569
511,555,33767424,12.3450396537422
512,556,33767424,11.687363912467877
513,557,33767424,12.347355372807419
514,558,33767424,11.962691410578703
515,559,33767424,12.343884376100094
516,560,33767424,11.756112896537966
517,561,33767424,12.348073286670122
518,562,33767424,11.726457176413472
519,563,33767424,12.34576181208807
520,564,33767424,11.755855050424872
521,565,33767424,12.341867671342825
522,566,33767424,11.792109195508669
523,567,33767424,12.347350857890055
524,568,33767424,11.736760900431516
525,569,33767424,12.308751982509085
526,570,33767424,11.89191443084907
527,571,33767424,12.344177687832618
528,572,33767424,11.863299907215383
529,573,33767424,12.348362281853031
530,574,33767424,12.123773168693075
531,575,33767424,12.347350857890055
532,576,33767424,12.217686060752982
533,577,33767424,12.344466500696416
534,578,33767424,12.214570341325077
535,579,33767424,12.34417317523885
536,580,33767424,11.987015974440894
537,581,33767424,12.344750814058955
538,582,33767424,12.218534872520602
539,583,33767424,12.34417317523885
540,584,33767424,12.19918302229727
541,585,33767424,12.346195147651942
542,586,33767424,12.20666222995173
543,587,33767424,12.34648856921179
544,588,33767424,12.20496802141183
545,589,33767424,12.345621887309546
546,590,33767424,11.986199023708714
547,591,33767424,12.34547745215534
548,592,33570816,9.773183235016782
549,593,33570816,12.303104176943437
550,594,33570816,10.422152418644302
551,595,33570816,12.334924182661199
552,596,33570816,11.26678851641112
553,597,33570816,12.334634127343092
554,598,33570816,11.113062148545952
555,599,33570816,12.338700678556911
556,600,33570816,11.173548921780402
557,601,33570816,12.339716601422506
558,602,33570816,11.43828061301152
559,603,33570816,12.309167081606658
560,604,33570816,11.384286810588316
