idx,og Index,data (B),bandwidth (GB/s)
0,0,16801792,12.053973082331334
1,2,16801792,12.015638688232437
2,4,16801792,12.013164451975705
3,5,16801792,12.01151552715993
4,6,16801792,12.049823574973464
5,7,16801792,11.998066232259216
6,8,16801792,12.069775978679003
7,10,16801792,12.143752236055146
8,12,16801792,11.932073970968384
9,13,16801792,12.214093123980904
10,14,16801792,11.788481075892882
11,15,16801792,11.832314548250976
12,16,16801792,11.937499644755166
13,18,16801792,11.968520449740424
14,20,16801792,12.029954255249836
15,21,16801792,11.823255552115292
16,22,16801792,11.851017562322298
17,23,16801792,11.165517117636778
18,24,16801792,12.049823574973464
19,26,16801792,11.746810521782416
20,28,16801792,11.966338292186814
21,29,16801792,12.067834105089569
22,30,16801792,12.020581619629233
23,31,16801792,11.339131420688874
24,32,16801792,11.849680269071895
25,34,16801792,11.954350634935993
26,36,16801792,12.15781182727618
27,37,16801792,12.148520063165567
28,38,16801792,11.938313921431535
29,39,16801792,11.930447230443255
30,40,16801792,11.8920767579994
31,42,16801792,11.95816228342377
32,44,16801792,11.856361388514104
33,45,16801792,11.530624611826552
34,46,16801792,11.973714798004309
35,47,16801792,11.247316161138107
36,48,16801792,11.932616316396507
37,50,16801792,12.0931185978085
38,52,16801792,12.019214384892887
39,53,16801792,11.993681146302308
40,54,16801792,12.030496921094086
41,55,16801792,11.882396621798902
42,56,16801792,12.14290091871484
43,58,16801792,12.16626321944367
44,60,16801792,12.03519345584522
45,61,16801792,12.060349870759858
46,62,16801792,11.860110795502674
47,63,16801792,11.924757129960312
48,64,16801792,12.11069144672729
49,66,16801792,12.137015176152152
50,68,16801792,12.019764680970091
51,69,16801792,11.512673896494285
52,70,16801792,11.805179110434104
53,71,16801792,11.38733199546453
54,72,16801792,11.811021319431557
55,74,16801792,12.019205786916487
56,76,16801792,11.925298810436363
57,77,16801792,12.010957399962255
58,78,16801792,12.047343879849166
59,79,16801792,12.003817950080874
60,80,16801792,12.167100194073516
61,82,16801792,12.214945572954342
62,84,16801792,11.916375822266351
63,85,16801792,12.147404600627983
64,86,16801792,11.94102897949205
65,87,16801792,11.868689779887543
66,88,16801792,12.040437221908105
67,90,16801792,12.055642335761187
68,92,16801792,12.071432266370852
69,93,16801792,11.69161098087025
70,94,16801792,12.03271116050999
71,95,16801792,11.815007960215798
72,96,16801792,11.880774996464432
73,98,16801792,12.09981571353573
74,100,16801792,12.038228763569327
75,101,16801792,11.831248063543926
76,102,16801792,11.929905082165558
77,103,16801792,11.636686003667936
78,104,16801792,11.834981601383982
79,106,16801792,12.064775188276586
80,108,16801792,12.150215607167574
81,109,16801792,11.886700695793053
82,110,16801792,12.03684026524074
83,111,16801792,11.543553372590969
84,112,16801792,12.12187534269504
85,114,16801792,12.041809289551692
86,116,16801792,12.176693974338905
87,117,16801792,12.109862214556664
88,118,16801792,12.052321581899344
89,119,16801792,11.901241563769684
90,120,16801792,12.095913241236618
91,122,16801792,12.169647067174358
92,124,16801792,12.182635939728486
93,125,16801792,12.045961914444078
94,126,16801792,12.123003615588809
95,127,16801792,12.129444913287328
96,128,16801792,12.044019061928328
97,130,16801792,12.10930363795314
98,132,16801792,12.042637859162037
99,133,16801792,11.79483665893532
100,134,16801792,12.111250151374481
101,135,16801792,10.95331387154437
102,136,16801792,12.196502445210516
103,138,16801792,12.244008727298167
104,140,16801792,12.16203605514316
105,141,16801792,11.765499392180699
106,142,16801792,12.121324402024333
107,143,16801792,11.945103882882217
108,144,16801792,12.170493323240628
109,146,16801792,12.194802810021606
110,148,16801792,12.166254409796846
111,149,16801792,12.11097079260733
112,150,16801792,12.14965330178617
113,151,16801792,12.06256645370371
114,152,16801792,11.974534022935915
115,154,16801792,12.211243611584328
116,156,16801792,12.112376447112407
117,157,16801792,11.99202900619522
118,158,16801792,12.097864162675878
119,159,16801792,12.131117618857832
120,160,16801792,12.16259950732248
121,162,16801792,12.203873009001576
122,164,16801792,12.103432974303118
123,165,16801792,12.108186639320458
124,166,16801792,12.06532966433237
125,167,16801792,11.817401236756076
126,168,16801792,12.083386612028736
127,170,16801792,12.152465349277403
128,172,16801792,12.112376447112407
129,173,16801792,11.94102897949205
130,174,16801792,12.057026523346874
131,175,16801792,11.470420735216512
132,176,16801792,12.164290177152543
133,178,16801792,12.190838836160266
134,180,16809984,12.06983421733046
135,181,16809984,12.125834688864924
136,182,16809984,12.121637612446143
137,183,16809984,11.692633008174417
138,184,16809984,12.129754583298157
139,186,16809984,12.15613965183221
140,188,16809984,12.04851808820441
141,189,16809984,11.836749869028104
142,190,16809984,12.180944810340117
143,191,16809984,11.895988903671412
144,192,16809984,12.21606985185912
145,194,16809984,11.746756187143264
146,196,16809984,12.057644345777131
147,197,16809984,11.840493398971475
148,198,16809984,11.879578695040113
149,199,16809984,11.707486669749665
150,200,16809984,12.134228808029244
151,202,16809984,12.109892516497133
152,204,16809984,12.171067007543751
153,205,16809984,12.128354330100786
154,206,16809984,12.02782788383726
155,207,16809984,11.793699169879945
156,208,16809984,12.04299374351193
157,210,16809984,11.993493113545169
158,212,16809984,12.066784439360582
159,213,16809984,11.214603415620536
160,214,16809984,11.792640150856142
161,215,16809984,11.639264170696446
162,216,16809984,11.949033520589534
163,218,16809984,12.077881935538105
164,220,16809984,12.053485690684747
165,221,16809984,12.038853808356448
166,222,16809984,12.10990124045561
167,223,16809984,12.064004593081672
168,224,16809984,11.911904262495819
169,226,16809984,11.90839383171532
170,228,16809984,12.03030695561378
171,229,16809984,11.946035987378833
172,230,16809984,11.862945795954316
173,231,16809984,11.0566831497567
174,232,16809984,11.530683582924969
175,234,16809984,11.984198808137856
176,236,16809984,11.98528396808104
177,237,16809984,11.697311425034497
178,238,16809984,11.985557425206057
179,239,16809984,10.94495483329926
180,240,16809984,12.049347177073964
181,242,16809984,12.008023453170807
182,244,16809984,11.965091225899856
183,245,16809984,12.035268166220026
184,246,16809984,11.921644720465178
185,247,16809984,11.042041249059029
186,248,16809984,11.798202123538033
187,250,16809984,11.996240555895326
188,252,16809984,11.661994695556436
189,253,16809984,11.459740550136242
190,254,16809984,11.850643678792968
191,255,16809984,11.803238907332199
192,256,16809984,11.883340968086731
193,258,16809984,11.851972181329002
194,260,16809984,11.76411835512135
195,261,16809984,11.343190199366374
196,262,16809984,11.846100613728664
197,263,16809984,11.89949202358098
198,264,16809984,11.839417621239695
199,266,16809984,12.085653646836878
200,268,16809984,11.815716816149802
201,269,16809984,11.411693704690068
202,270,16809984,11.851437402354215
203,271,16809984,11.041352235235543
204,272,16809984,11.80456509159958
205,274,16809984,11.96999025879699
206,276,16809984,11.925966706585466
207,277,16809984,11.477517767637739
208,278,16809984,11.620982772446975
209,279,16809984,12.129185691443613
210,280,16809984,11.878772803590913
211,282,16809984,11.956095978878729
212,284,16809984,11.931113193084064
213,285,16809984,11.972991299095721
214,286,16809984,11.871524697879648
215,287,16809984,11.582803688861205
216,288,16809984,11.925966706585466
217,290,16809984,12.008581035853613
218,292,16809984,11.797945429011182
219,293,16809984,11.1685860131432
220,294,16809984,11.930850682529059
221,295,16809984,12.172759207241965
222,296,16809984,12.028370093479344
223,298,16809984,12.059028318298392
224,300,16809984,11.722378117834769
225,301,16809984,12.158944536064578
226,302,16809984,12.208120695652932
227,303,16809984,12.303910539286548
228,304,16809984,11.919480676028774
229,306,16809984,11.936815061562355
230,308,16809984,11.900031148237293
231,309,16809984,11.972181210993336
232,310,16809984,11.752012035861497
233,311,16809984,11.772554863939671
234,312,16809984,11.735996380757696
235,314,16809984,12.061243335277771
236,316,16809984,11.99732789777496
237,317,16809984,11.990481788145603
238,318,16809984,11.946587828113952
239,319,16809984,11.908672227830614
240,320,16809984,11.904615680964495
241,322,16809984,12.085106260608628
242,324,16809984,11.862410026251164
243,325,16809984,12.12023049369257
244,326,16809984,11.959362318510635
245,327,16809984,11.940070873373333
246,328,16809984,11.781267696448095
247,330,16809984,11.793963954356403
248,332,16809984,11.495861212475996
249,333,16809984,11.988301232563995
250,334,16809984,11.94224240146575
251,335,16809984,11.97163552922727
252,336,16809984,11.747018867924528
253,338,16809984,12.16937527826342
254,340,16809984,12.167965863068632
255,341,16809984,12.018188161680174
256,342,16809984,11.988848434708498
257,343,16809984,10.509635926108624
258,344,16809984,12.090391042888923
259,346,16809984,11.968626646844722
260,348,16809984,11.808279993481205
261,349,16809984,11.973264195561127
262,350,16809984,11.972181210993336
263,351,16809984,11.598915869484816
264,352,16809984,11.953103401198014
265,354,16809984,12.147987341799595
266,356,16809984,12.000068531093127
267,357,16809984,12.157256174821654
268,358,16809984,11.9965059518712
269,359,16809984,11.665110391881464
270,360,16809984,12.2018821838559
271,362,16809984,12.132556059896343
272,364,16809984,12.008032030973752
273,365,16809984,12.26169293219591
274,366,16809984,12.114648937895248
275,367,16809984,11.938976926005262
276,368,16809984,12.082326651510437
277,370,16809984,12.137873667793086
278,372,16809984,11.99898069240109
279,373,16809984,12.10683118336645
280,374,16809984,11.96808980988447
281,375,16809984,12.013241019718599
282,376,16809984,12.020946931151588
283,378,16809984,12.130314775112698
284,380,16809984,12.005553555818379
285,381,16809984,11.736783015232
286,382,16809984,12.036371213211524
287,383,16809984,10.860320382986558
288,384,16809984,11.971908363892235
289,386,16809984,12.079261878071915
290,388,16809984,12.151921574127154
291,389,16809984,12.029196411703754
292,390,16809984,12.000625375242993
293,391,16809984,11.80562625360279
294,392,16809984,11.966172928091845
295,394,16809984,12.07204453662264
296,396,16809984,11.941419502963692
297,397,16809984,10.979275210392766
298,398,16809984,11.767807839425624
299,399,16809984,12.149954139481029
300,400,16809984,12.302181681660803
301,402,16809984,12.285207091077979
302,403,16809984,12.115766584237091
303,404,16809984,12.254541875799626
304,405,16809984,12.292969307037128
305,406,16809984,12.275446381952959
306,407,16809984,12.299589306005439
307,408,16809984,12.23826861459901
308,410,16809984,12.304775150332873
309,412,16809984,12.10627315840076
310,413,16809984,12.266846862756402
311,414,16809984,12.224029366785949
312,415,16809984,12.21378873394986
313,416,16809984,12.186596471030889
314,417,16809984,12.031124929144408
315,418,16809984,12.305063381018854
316,420,16809984,12.29268164264314
317,421,16809984,12.214924748434802
318,422,16809984,12.30161450611276
319,423,16809984,12.296998022675949
320,424,16809984,12.217215170001875
321,425,16809984,12.293544676217271
322,426,16809984,12.305351625208353
323,428,16809984,12.283779695572427
324,429,16809984,11.991858939650431
325,430,16809984,12.2277283826868
326,431,16809984,12.298437489711663
327,432,16809984,12.230290551527697
328,433,16809984,12.106552164453372
329,434,16809984,12.307081373972364
330,435,16809984,12.291818730234173
331,436,16818176,11.808195017833572
332,437,16818176,12.297233407353842
333,438,16818176,12.160375291660129
334,439,16818176,12.218320459842264
335,440,16818176,12.104083376095657
336,442,16818176,12.1615008427923
337,444,16818176,12.071833043228597
338,445,16818176,12.005093795505811
339,446,16818176,12.091265162451759
340,447,16818176,11.91095700258925
341,448,16818176,12.111326831010663
342,450,16818176,12.071547105672664
343,452,16818176,12.057423073614178
344,453,16818176,11.998524634957732
345,454,16818176,11.697029383453794
346,455,16818176,11.934225493333637
347,456,16818176,12.04389264734422
348,458,16818176,12.146042755529685
349,460,16818176,11.98456232363253
350,461,16818176,11.929070367869445
351,462,16818176,11.953760512205246
352,463,16818176,11.649066034233405
353,464,16818176,11.98538223405529
354,466,16818176,11.959481263462099
355,468,16818176,12.031210140505724
356,469,16818176,11.969286412247857
357,470,16818176,11.945338113880824
358,471,16818176,12.0593683561413
359,472,16818176,11.985117459050565
360,474,16818176,11.982658172923808
361,476,16818176,12.037823766329232
362,477,16818176,11.995503694616415
363,478,16818176,11.913386942305186
364,479,16818176,11.860691577290448
365,480,16818176,11.919330970942594
366,482,16818176,12.004553945336953
367,484,16818176,12.053275234354844
368,485,16818176,12.008110994967756
369,486,16818176,11.92744602989986
370,487,16818176,10.908695601411928
371,488,16818176,11.904751657785503
372,490,16818176,12.117190697138247
373,492,16818176,12.01470782590929
374,493,16818176,11.44086600830335
375,494,16818176,11.80739916988211
376,495,16818176,11.288025542431
377,496,16818176,11.91231528419478
378,498,16818176,11.844653411235752
379,500,16818176,11.996325102857176
380,501,16818176,11.292383595933227
381,502,16818176,11.871407839084744
382,503,16818176,11.265523424715434
383,504,16818176,11.855883926626536
384,506,16818176,11.891830585965977
385,508,16818176,11.916358215384964
386,509,16818176,11.573129536081872
387,510,16818176,11.993313822474
388,511,16818176,11.781196236333171
389,512,16818176,11.853736375887365
390,514,16818176,12.01910401511627
391,516,16818176,12.094891188110338
392,517,16818176,11.934767505810138
393,518,16818176,12.000442394840249
394,519,16818176,12.10938218892541
395,520,16818176,12.081259230738286
396,522,16818176,12.053283872720145
397,524,16818176,11.912855308276791
398,525,16818176,11.44011890307155
399,526,16818176,11.75905447507817
400,527,16818176,11.040467504879143
401,528,16818176,11.993040144673714
402,530,16818176,11.954304300604461
403,532,16818176,12.068229487704786
404,533,16818176,11.858826582165126
405,534,16818176,11.832653222038983
406,535,16818176,11.07700008628088
407,536,16818176,11.894244315320769
408,538,16818176,11.930424320842626
409,540,16818176,11.809256315337127
410,541,16818176,11.975559234534936
411,542,16818176,11.91690705008974
412,543,16818176,11.740928764904638
413,544,16818176,11.94289512404347
414,546,16818176,11.91798798009296
415,548,16818176,11.877846896169862
416,549,16818176,11.91095700258925
417,550,16818176,11.886980860026576
418,551,16818176,11.94506662121083
419,552,16818176,11.927183808474892
420,554,16818176,11.934225493333637
421,556,16818176,11.871675993743047
422,557,16818176,12.051072855274708
423,558,16818176,11.672601460968542
424,559,16818176,12.060198534405053
425,560,16818176,11.676758924455257
426,562,16818176,11.985928903332479
427,564,16818176,11.920953099216902
428,565,16818176,11.107433475306395
429,566,16818176,11.556596357559465
430,567,16818176,11.03698249510107
431,568,16818176,11.746439367271792
432,570,16818176,11.788595364799166
433,572,16818176,11.825473087802761
434,573,16818176,12.085990874877744
435,574,16818176,11.918790359615155
436,575,16818176,12.068775080228026
437,576,16818176,11.935843207612516
438,578,16818176,12.133984685856603
439,580,16818176,11.836384007747268
440,581,16818176,12.196779613939487
441,582,16818176,11.87355341560532
442,583,16818176,12.042512818933858
443,584,16818176,12.069060886476091
444,586,16818176,11.755109344158713
445,588,16818176,11.828392345735972
446,589,16818176,12.019095425673628
447,590,16818176,11.8620300518544
448,591,16818176,11.754320635612885
449,592,16818176,11.974467836665355
450,594,16818176,11.821740866328144
451,596,16818176,11.88402421720869
452,597,16818176,11.856410487786995
453,598,16818176,11.989756985040408
454,599,16818176,11.787802156518618
455,600,16818176,11.924748237860006
456,602,16818176,11.945346598225619
457,604,16818176,12.128104558195615
458,605,16818176,12.18094062704607
459,606,16818176,12.02542057785481
460,607,16818176,11.781724437470228
461,608,16818176,11.736987593872936
462,610,16818176,12.043332053918732
463,612,16818176,11.894521914956968
464,613,16818176,11.774333928881472
465,614,16818176,11.808990973076513
466,615,16818176,11.136854470819534
467,616,16818176,12.056878506964283
468,618,16818176,12.014149945994754
469,620,16818176,11.963020157954599
470,621,16818176,12.15896864568957
471,622,16818176,12.013600699464543
472,623,16818176,11.998524634957732
473,624,16818176,12.068229487704786
474,626,16818176,12.118587692751117
475,628,16818176,11.922305210087845
476,629,16818176,12.257368519634689
477,630,16818176,11.959744906957031
478,631,16818176,11.809521669522232
479,632,16818176,11.908536486062598
480,634,16818176,11.97419501828007
481,636,16818176,11.854279457237851
482,637,16818176,12.173049766537275
483,638,16818176,11.972549845948825
484,639,16818176,11.912306846706974
485,640,16818176,11.896398155221684
486,642,16818176,11.877041632062733
487,644,16818176,11.877846896169862
488,645,16818176,12.065450329719523
489,646,16818176,11.972822589371651
490,647,16818176,11.816690742916244
491,648,16818176,11.896936737084552
492,650,16818176,12.051072855274708
493,652,16818176,11.765372195452281
494,653,16818176,11.431658524748283
495,654,16818176,11.816159401961611
496,655,16818176,11.126473160591871
497,656,16818176,11.816167703796548
498,658,16818176,11.651131986587968
499,660,16818176,11.61738597045051
500,661,16818176,11.975832115088693
501,662,16818176,11.950235584441977
502,663,16818176,11.970104233762628
503,664,16818176,12.166841255418522
504,666,16818176,11.877310041299669
505,668,16818176,12.019645174754006
506,669,16818176,11.936656465230895
507,670,16818176,11.896137297161948
508,671,16818176,12.08432352423414
509,672,16818176,11.853201698250441
510,674,16818176,11.959744906957031
511,676,16818176,11.735947435117316
512,677,16818176,12.034516044780124
513,678,16818176,11.93314161605884
514,679,16818176,11.96601624338756
515,680,16818176,11.991680493295124
516,682,16818176,12.017180286542942
517,684,16818176,11.72468949208881
518,685,16818176,12.045824938421395
519,686,16818176,11.90988578158073
520,687,16818176,11.605849651372703
521,688,16818176,11.875699767826779
522,690,16818176,11.852667068845951
523,692,16826368,11.651633069528108
524,693,16826368,11.739828867095708
525,694,16826368,11.576990185987373
526,695,16826368,12.01891155014568
527,696,16826368,11.932172620567195
528,698,16826368,11.966115001905889
529,700,16826368,11.915678554230519
530,701,16826368,12.11081593272332
531,702,16826368,12.011215743157198
532,703,16826368,11.985753605762381
533,704,16826368,11.589996149610036
534,706,16826368,11.843749824029912
535,708,16826368,11.789313199594186
536,709,16826368,11.676739189571801
537,710,16826368,11.701685183845825
538,711,16826368,12.142698483603096
539,712,16826368,11.763203078248127
540,714,16826368,11.945192175949556
541,715,16826368,12.299203412650959
542,716,16826368,11.824307534897319
543,717,16826368,12.310424270890719
544,718,16826368,11.73170908563556
545,719,16826368,11.76004607186988
546,720,16826368,11.71759174145817
547,722,16826368,11.856034001679792
548,724,16826368,11.904887505306354
549,725,16826368,11.909201578610618
550,726,16826368,11.721248530173927
551,727,16826368,12.249055279696176
552,728,16826368,11.806519335155798
553,730,16826368,11.83735911522143
554,732,16826368,11.81952335193396
555,733,16826368,12.028801006548283
556,734,16826368,11.943021690171035
557,735,16826368,11.986855068798597
558,736,16826368,12.069119409654654
559,738,16826368,11.934610037733707
560,740,16826368,11.798836550490007
561,741,16826368,12.135412256743532
562,742,16826368,11.893039903647704
