idx,og Index,data (B),bandwidth (GB/s)
0,0,33570816,12.285517713844055
1,1,33570816,12.25466301043428
2,2,33570816,10.546516168575538
3,3,33570816,12.33593495074565
4,7,33570816,12.343482417307664
5,9,33570816,12.073153548295217
6,11,33570816,12.344208621982968
7,13,33570816,12.23636718852514
8,15,33570816,12.34333718662584
9,16,33570816,11.188556421348727
10,17,33570816,12.344208621982968
11,18,33570816,11.036946735944262
12,19,33570816,12.066765657029663
13,21,33570816,12.174737507869686
14,23,33570816,12.347695594219786
15,24,33570816,11.003603207323232
16,27,33570816,12.347550264379011
17,29,33570816,12.258529275154022
18,31,33570816,12.349294448286518
19,32,33570816,11.251434799570465
20,33,33570816,12.345084720083754
21,34,33570816,11.138899395985714
22,35,33570816,11.950069359976677
23,37,33570816,12.345665827829036
24,39,33570816,12.344934912112967
25,40,33570816,11.255539119507652
26,43,33570816,12.344644385805438
27,45,33570816,12.34333718662584
28,47,33570816,12.34043329049637
29,48,33570816,11.042170725505938
30,49,33570816,11.420839719197737
31,50,33570816,11.115174178194062
32,51,33570816,12.347554805884752
33,53,33570816,12.347118836567033
34,55,33570816,12.103798091778234
35,57,33570816,12.347554805884752
36,59,33570816,12.34435841232685
37,61,33570816,12.34828148983526
38,63,33570816,12.343341725032916
39,64,33570816,11.320033544520843
40,65,33570816,12.346533051273829
41,66,33570816,11.236010051583312
42,67,33570816,12.347118836567033
43,69,33570816,12.34581111331355
44,71,33570816,12.239222308749026
45,73,33570816,12.34711429538199
46,75,33570816,12.344213161030888
47,76,33570816,11.247457824733553
48,79,33570816,12.344644385805438
49,80,33570816,11.230717557497066
50,81,33570816,12.15428506880382
51,82,33570816,11.242030307535895
52,83,33570816,12.22809486760322
53,85,33570816,12.345661287712744
54,87,33570816,12.10338352912673
55,88,33570816,11.121894592048088
56,91,33570816,12.344353873172109
57,93,33570816,12.238080100789459
58,94,33570816,11.29395046527119
59,96,33570816,11.224829508446671
60,97,33570816,12.341304315859128
61,98,33570816,11.125193327432298
62,99,33570816,12.23223408654906
63,101,33570816,12.343046735514461
64,103,33570816,12.22752477497822
65,105,33570816,12.346101694541257
66,107,33570816,12.345956402217585
67,109,33570816,12.23993629700065
68,110,33570816,11.04182206357001
69,112,33570816,11.139609058004197
70,113,33570816,12.34682820745845
71,114,33570816,11.248422595343728
72,115,33570816,12.344063374212014
73,117,33570816,12.345080180394856
74,118,33570816,12.26239798020531
75,120,33570816,12.256953835818498
76,122,33570816,12.040733057303457
77,124,33570816,12.183928203311684
78,126,33570816,12.280771785859567
79,128,33570816,12.139096123972704
80,129,33570816,12.316094399816858
81,130,33570816,12.276029523188223
82,131,33570816,12.244793627172058
83,132,33570816,12.340868787808386
84,134,33570816,12.27387515977221
85,136,33570816,10.387064535921136
86,138,33570816,11.06021857649848
87,141,33570816,12.233085446589687
88,143,33570816,12.349149080807159
89,144,33570816,11.15465147960845
90,145,33570816,12.342756298071974
91,146,33570816,11.118829812180138
92,147,33570816,12.343191959361478
93,149,33570816,12.344644385805438
94,151,33570816,12.346533051273829
95,152,33570816,11.160109942861094
96,155,33570816,12.345665827829036
97,157,33570816,12.345370727215494
98,159,33570816,12.346968979224348
99,160,33570816,11.206484046921213
100,161,33570816,12.341454035726484
101,162,33570816,11.301984582946034
102,163,33570816,12.347986264164712
103,165,33570816,12.345661287712744
104,167,33570816,12.346246990284692
105,170,33570816,10.982641501533017
106,174,33570816,11.16070357599267
107,176,33570816,11.100711459941195
108,177,33570816,12.270860321015741
109,178,33570816,11.207924481057665
110,179,33570816,12.339126982960142
111,181,33570816,12.348717541263467
112,182,33570816,11.111292929854594
113,185,33570816,12.344208621982968
114,186,33570816,11.192376166719344
115,189,33570816,12.347554805884752
116,191,33570816,12.345375267118081
117,192,33570816,11.186528241881717
118,193,33570816,11.953881997364299
119,194,33570816,11.184266049131617
120,195,33570816,12.347986264164712
121,197,33570816,12.2543767174692
122,199,33570816,12.220830166260408
123,201,33570816,12.143307073512426
124,203,33570816,12.231659151259352
125,205,33570816,12.238080100789459
126,207,33570816,11.927380115334287
127,208,33570816,11.28022805869205
128,209,33570816,12.234084051252896
129,210,33570816,11.359748081629835
130,211,33570816,11.700956339101296
131,213,33570816,12.223108358844552
132,215,33570816,12.252086855220861
133,217,33570816,12.261968003506466
134,219,33570816,12.166689378234587
135,221,33570816,11.528526657825024
136,223,33570816,12.3411591364266
137,224,33570816,11.269447380815146
138,225,33570816,12.113026183995174
139,226,33570816,11.064884726281775
140,227,33570816,12.246799292716195
141,229,33570816,11.975168449105345
142,231,33570816,12.226099775951333
143,233,33570816,12.225529869335315
144,235,33570816,12.25079471312781
145,237,33570816,12.116103884854697
146,239,33570816,12.33303453606581
147,240,33570816,11.397760633831819
148,241,33570816,12.022790100509802
149,242,33570816,10.92226509973767
150,243,33570816,12.348426836889596
151,245,33570816,12.26640806866683
152,247,33570816,12.346242449740945
153,249,33570816,12.343482417307664
154,251,33570816,11.521559068948866
155,253,33570816,12.242221619303512
156,255,33570816,12.2668428391442
157,256,33570816,11.274291780445138
158,257,33570816,12.061493799637482
159,258,33570816,11.265695833605992
160,259,33570816,12.343918129859128
161,261,33570816,12.346101694541257
162,263,33570816,12.058859597983126
163,265,33570816,11.921280975667612
164,267,33570816,11.366763740600302
165,269,33570816,12.156961130537312
166,271,33570816,12.242078761658318
167,272,33570816,11.267385989713599
168,273,33570816,12.134181922279508
169,274,33570816,11.441017145431662
170,275,33570816,11.564108799876543
171,277,33570816,12.34479418672509
172,279,33570816,12.132497968931151
173,281,33570816,12.047780832615281
174,283,33570816,12.339131518271726
175,285,33570816,12.229948035824098
176,287,33570816,11.990771937632356
177,288,33570816,11.252645413527182
178,289,33570816,11.888318390962123
179,290,33570816,11.248060786969855
180,291,33570816,12.062880683870016
181,293,33570816,12.339276650002738
182,295,33570816,12.324486253594095
183,297,33570816,12.31754045573425
184,299,33570816,12.190157476883927
185,301,33570816,12.291275273938297
186,303,33570816,12.27660414783349
187,304,33570816,11.20528708469349
188,305,33570816,12.346246990284692
189,306,33570816,11.382549825841387
190,307,33570816,12.344644385805438
191,309,33570816,11.59401021781497
192,311,33570816,12.11344577840258
193,313,33570816,12.060111566792067
194,315,33570816,12.224817560776659
195,317,33570816,11.960836960332458
196,319,33570816,12.224960015848
197,320,33570816,11.0306801200235
198,321,33570816,12.228522471959225
199,322,33570816,11.448262409485219
200,323,33570816,12.343046735514461
201,325,33570816,11.730525250591054
202,327,33570816,11.864655037443262
203,329,33570816,12.053045034280512
204,331,33570816,12.349589736515382
205,333,33570816,12.34435841232685
206,335,33570816,12.026929349150075
207,336,33570816,11.341081927106014
208,337,33570816,12.032994766473458
209,338,33570816,11.34537461638054
210,339,33570816,11.596833799337162
211,341,33570816,12.169229743093034
212,343,33570816,12.130814482908145
213,345,33570816,12.001334164147234
214,347,33570816,12.24307883519619
215,349,33570816,11.52194264085979
216,351,33570816,12.256381049182052
217,352,33570816,11.27526116020524
218,353,33570816,11.794753096179184
219,354,33570816,11.247457824733553
220,355,33570816,11.801391314007457
221,357,33570816,12.241793056369954
222,359,33570816,12.01191501481505
223,361,33570816,12.13769166023099
224,363,33570816,11.775957075803118
225,365,33570816,11.91478209823547
226,367,33570816,12.345665827829036
227,368,33570816,11.377118415741727
228,369,33570816,12.345516005754481
229,370,33570816,11.363439453837023
230,371,33570816,11.747996380151303
231,373,33570816,12.288688202523787
232,375,33570816,11.789322862618219
233,377,33570816,12.24493654818632
234,379,33570816,11.740502384764367
235,381,33570816,12.160761577709073
236,383,33570816,12.145279627684053
237,384,33570816,11.255542893237887
238,385,33570816,12.210868609227875
239,386,33570816,11.176521153474175
240,387,33570816,11.942179485492046
241,389,33570816,11.913158485869747
242,391,33570816,12.049307280375576
243,393,33570816,12.263114675051797
244,395,33570816,12.012190090702891
245,396,33570816,10.988393239405639
246,398,33751040,12.197626541506612
247,401,33751040,12.243502890647305
248,403,33751040,12.233140895344084
249,404,33751040,12.12011870527365
250,405,33751040,12.142439558597248
251,406,33751040,12.132103936755405
252,407,33751040,12.269424627157308
253,409,33751040,12.343950754457309
254,411,33751040,12.34207747148428
255,413,33751040,12.344677651079568
256,415,33751040,12.346411712890207
257,417,33751040,12.313978908901985
258,419,33751040,12.33067851349574
259,420,33751040,11.872087910541737
260,421,33751040,12.296316428574812
261,422,33751040,12.219389020411725
262,423,33751040,12.334427744042381
263,424,33751040,11.914332411986685
264,427,33751040,12.342944076300816
265,429,33751040,12.28128702466516
266,431,33751040,12.346411712890207
267,433,33751040,12.34713438243549
268,435,33751040,12.349736693431533
269,436,33751040,11.98051088293822
270,437,33751040,11.957289523646892
271,438,33751040,12.118443271455178
272,439,33751040,12.348724553264354
273,441,33751040,12.323326370412076
274,443,33751040,12.349013719240013
275,445,33751040,12.346845304465653
276,447,33751040,12.346267189132401
277,449,33751040,12.315272949123253
278,451,33751040,12.346700770556716
279,452,33767424,11.695131724867402
280,453,33767424,12.344164150061214
281,454,33767424,11.639528330470625
282,455,33767424,12.241209003140833
283,457,33767424,12.228158560291558
284,459,33767424,12.346912926598822
285,461,33767424,12.005149418095135
286,463,33767424,12.297702117245338
287,465,33767424,12.311911452482496
288,466,33767424,12.198469096359362
289,468,33767424,12.003506414563137
290,469,33767424,12.106798932569989
291,470,33767424,12.288961472604297
292,471,33767424,12.338102213464355
293,473,33767424,12.34647502637126
294,475,33767424,12.230284450960678
295,477,33767424,11.843190785666437
296,479,33767424,12.348502268757844
297,481,33767424,12.345030627297504
298,483,33767424,12.265967679597347
299,484,33767424,12.054240724808928
300,485,33767424,12.344746301046149
301,486,33767424,12.03952488560331
302,487,33767424,12.349947480374631
303,489,33767424,12.318086972255378
304,491,33767424,12.34749082186371
305,493,33767424,12.223342609833862
306,495,33767424,12.345612860013397
307,497,33767424,12.161354626871477
308,499,33767424,12.344313067179828
309,500,33767424,12.064995160413792
310,501,33767424,12.263401793781904
311,502,33767424,11.946435413393411
312,503,33767424,12.346768461234698
313,505,33767424,12.07023935355488
314,507,33767424,12.346623999251175
315,509,33767424,12.345035140518203
316,511,33767424,12.267821487218985
317,513,33767424,12.200725740219976
318,515,33767424,12.118895542368229
319,516,33767424,12.002141143435995
320,517,33767424,12.344024261495404
321,518,33767424,11.950219310507865
322,519,33767424,12.106937836869783
323,521,33767424,12.346763946746542
324,523,33767424,12.229287847680332
325,525,33767424,12.182836584201656
326,527,33767424,12.34633508542546
327,529,33767424,12.347630789010537
328,531,33767424,12.328592834047475
329,532,33767424,11.802260530747287
330,533,33767424,12.089322455812608
331,534,33767424,11.72410795196117
332,535,33767424,12.343446690665786
333,537,33767424,12.108878489591739
334,539,33767424,12.348935796726204
335,541,33767424,12.345463911532903
336,543,33767424,12.349080312813596
337,545,33767424,12.345463911532903
338,547,33767424,12.30328956836826
339,548,33767424,11.680244733111817
340,549,33767424,11.631189120615712
341,550,33767424,11.654959275287185
342,551,33767424,12.231414131059621
343,553,33767424,12.34619063358303
344,555,33767424,12.347919763481084
345,557,33767424,12.241772607587723
346,559,33767424,12.098470503384211
347,561,33767424,12.136318105770492
348,563,33767424,12.347635304132623
349,564,33767424,11.705769994751588
350,565,33767424,11.741584758489827
351,566,33767424,11.688524987382907
352,567,33767424,12.346330571254219
353,569,33767424,12.343446690665786
354,571,33767424,12.345323993506968
355,573,33767424,12.342864662245024
356,575,33767424,12.141903910911827
357,577,33767424,12.343302306403361
358,579,33767424,12.283239574182495
359,580,33767424,12.025534397183453
360,581,33767424,12.230563528987778
361,582,33767424,11.997233000343565
362,583,33767424,12.195085695340847
363,585,33767424,12.263254822419826
364,587,33767424,12.294831953563715
365,589,33767424,12.34647502637126
366,591,33767424,12.26225729173362
367,593,33767424,12.225325188770235
368,595,33767424,12.342003000026317
369,596,33767424,11.685159718593521
370,597,33767424,12.26439505624001
371,598,33767424,11.628881913246813
372,599,33767424,12.349075796634667
373,601,33767424,12.109299697728535
374,603,33767424,12.345612860013397
375,605,33767424,12.305585164826155
376,607,33767424,12.343879863720774
377,609,33767424,12.309321823828757
378,611,33767424,12.134224753622668
379,612,33767424,11.619918134752469
380,613,33767424,11.980887306138394
381,614,33767424,11.706159566745454
382,615,33767424,12.106937836869783
383,617,33767424,12.346908412005021
384,619,33767424,12.280952306482051
385,621,33767424,12.014170473341771
386,623,33767424,12.239079313254445
387,625,33767424,12.34618611951742
388,627,33767424,12.34749082186371
389,628,33767424,11.617231695271595
390,629,33767424,12.343297794449589
391,630,33767424,11.665911451153862
392,631,33767424,12.241062563235513
393,633,33767424,12.345175051996637
394,635,33767424,12.221356250576822
395,637,33767424,12.345463911532903
396,639,33767424,12.343586566141193
397,641,33767424,12.344601886378593
398,643,33767424,12.350092020142023
399,644,33767424,11.733233261406635
400,645,33767424,12.346046185120727
401,646,33767424,11.693187791616138
402,647,33767424,12.347341828065233
403,649,33767424,12.310757878465285
404,651,33767424,12.348646774698446
405,653,33767424,12.274528392419382
406,655,33767424,12.346046185120727
407,657,33767424,12.175386535814845
408,660,33767424,11.752438634329971
409,661,33767424,12.34806877122772
410,662,33767424,11.718375238020544
411,663,33767424,12.332483104998817
412,665,33767424,12.122376052083165
413,667,33767424,12.308173221320533
414,669,33767424,12.344313067179828
415,671,33767424,12.251010685713478
416,673,33767424,12.294263452996432
417,675,33767424,12.34980294399045
418,676,33767424,11.698502740714103
419,677,33767424,12.346041671160744
420,678,33767424,11.681663025598182
421,679,33767424,12.345468425070415
422,681,33767424,12.343302306403361
423,683,33767424,12.345897226184073
424,685,33767424,12.253002250849013
425,687,33767424,12.34980294399045
426,689,33767424,12.344890719092644
427,691,33767424,12.34633508542546
428,692,33767424,11.737670681949165
429,693,33767424,12.233399329412212
430,694,33767424,11.641839764759666
431,695,33767424,12.2395051919469
432,697,33767424,12.34633508542546
433,699,33767424,12.34633508542546
434,701,33767424,12.343879863720774
435,703,33767424,12.347635304132623
436,705,33767424,12.232264851453765
437,707,33767424,12.344890719092644
438,708,33767424,11.767247895272217
439,709,33767424,12.344601886378593
440,710,33767424,11.707714054801274
441,711,33767424,12.34777978978285
442,713,33767424,12.322977884825924
443,715,33767424,12.34777978978285
444,717,33767424,12.345901740038434
445,719,33767424,12.134643366278212
446,721,33767424,12.347486306847289
447,723,33767424,12.244755693593042
448,724,33767424,11.764759331869564
449,725,33767424,11.872505511273939
450,726,33767424,11.787758088513023
451,727,33767424,12.03101438059955
452,729,33767424,12.347057395343667
453,731,33767424,12.248028994170408
454,733,33767424,12.30156843301327
455,735,33767424,12.345323993506968
456,737,33767424,12.258842868635588
457,739,33767424,12.34777978978285
458,740,33767424,11.632343067652213
459,741,33767424,11.659462477457057
460,742,33767424,11.775389198107007
461,743,33767424,12.237234181343771
462,745,33767424,12.34777978978285
463,747,33767424,12.09167744807111
464,749,33767424,12.230421773477627
465,751,33767424,12.349075796634667
466,753,33767424,12.321246741115491
467,755,33767424,12.345897226184073
468,756,33767424,11.782624868015462
469,757,33767424,12.34619063358303
470,758,33767424,11.738584685210201
471,759,33767424,12.240920564249073
472,761,33767424,12.287391890357682
473,763,33767424,12.349075796634667
474,765,33767424,12.345901740038434
475,767,33767424,12.344164150061214
476,769,33767424,12.34633508542546
477,771,33767424,12.347346342975992
478,772,33767424,11.612122095802329
479,773,33767424,12.345463911532903
480,774,33767424,11.654959275287185
481,775,33767424,12.347052880644217
482,777,33767424,12.34749082186371
483,779,33767424,12.347635304132623
484,781,33767424,12.346619484868661
485,783,33767424,12.34619063358303
486,785,33767424,12.346479540648135
487,787,33767424,12.343879863720774
488,788,33767424,11.789997046165707
489,789,33767424,12.330753792625961
490,790,33767424,11.83150538922911
491,791,33767424,12.252006387348956
492,793,33767424,12.094449202124515
493,795,33767424,12.340126706992272
494,797,33767424,12.309609007952826
495,799,33767424,12.226595616411176
496,801,33767424,12.34806877122772
497,803,33767424,12.348213267022599
498,804,33767424,11.725801578884862
499,805,33767424,12.159252629634471
500,806,33767424,11.749825496387096
501,807,33767424,12.049427474719073
502,809,33767424,12.344890719092644
503,811,33767424,12.346768461234698
504,813,33767424,12.34401974901381
505,815,33767424,12.104299200094633
506,817,33767424,12.346623999251175
507,819,33767424,12.345608346370271
508,820,33767424,11.769876994182582
509,821,33767424,11.853700764072649
510,822,33767424,11.743156837528664
511,823,33767424,12.344457475089857
512,825,33767424,12.23581522763179
513,827,33767424,12.34619063358303
514,829,33767424,12.301572914511208
515,831,33767424,12.345901740038434
516,833,33767424,12.314924332383173
517,835,33767424,12.344457475089857
518,836,33767424,11.744202401050067
519,837,33767424,11.997642214172652
520,838,33767424,11.73166791392461
521,839,33767424,12.27952766213704
522,841,33767424,12.246318842745199
523,843,33767424,12.344890719092644
524,845,33767424,12.170190957186277
525,847,33767424,12.347486306847289
526,849,33767424,12.347052880644217
527,851,33767424,12.35182676128466
528,852,33767424,11.765808745899772
529,853,33767424,12.120426720383001
530,854,33767424,11.80675032604781
531,855,33767424,12.345608346370271
532,857,33767424,12.231418561588459
533,859,33767424,12.227870736078374
534,861,33767424,12.344886205977545
535,863,33767424,12.248166715452692
536,865,33767424,12.344457475089857
537,867,33767424,12.132271609719924
538,868,33767424,11.817195698870544
539,869,33767424,12.219091969341743
540,870,33767424,11.819975427137262
541,871,33767424,12.348502268757844
542,873,33767424,12.308168735012286
543,875,33767424,12.34430855448708
544,877,33767424,12.24418737465249
545,879,33767424,12.221219131557689
546,881,33767424,12.19593577448836
547,883,33767424,12.30774255064164
548,884,33767424,12.08544131868415
549,885,33767424,11.95022353966648
550,886,33767424,11.844387184216194
551,887,33767424,12.346479540648135
552,889,33767424,12.346768461234698
553,891,33767424,12.345612860013397
554,893,33767424,12.23397107968593
555,895,33767424,12.347057395343667
556,897,33767424,12.289681557593033
557,899,33767424,12.345757298336029
558,900,33767424,12.125719222760027
559,901,33767424,12.232127487545968
560,902,33767424,12.14931739877555
561,903,33767424,12.14889777309582
