idx,og Index,data (B),bandwidth (GB/s)
0,0,67125248,10.154978084238882
1,1,67125248,12.34671470080411
2,2,67125248,10.028219042684723
3,3,67125248,12.348095622563386
4,5,67125248,12.349040641761404
5,7,67125248,12.346278684414832
6,8,67125248,10.730950135996805
7,9,67125248,12.346860046444256
8,10,67125248,10.202047362858393
9,11,67125248,12.34954728612687
10,13,67125248,12.348967942841552
11,15,67125248,12.351003836203018
12,16,67125248,10.80908465386178
13,17,67125248,12.354131694097186
14,18,67125248,10.47423215774783
15,19,67125248,12.351803835126615
16,21,67125248,12.352674406236508
17,23,67125248,12.352310706253292
18,24,67125248,11.126667336336238
19,25,67125248,12.352167505261498
20,26,67125248,11.102108756103656
21,27,67125248,12.352022034637795
22,29,67125248,12.349985805618106
23,31,67125248,12.3243699768624
24,32,67125248,10.974096976163123
25,33,67125248,12.353040400963948
26,34,67125248,10.489160771793115
27,35,67125248,12.351222007450266
28,37,67125248,12.35449550132379
29,39,67125248,12.352676679428752
30,40,67125248,10.675628913488204
31,41,67125248,12.35318362219586
32,42,67125248,10.50008173217781
33,43,67125248,12.353185895575525
34,45,67125248,12.352385717621733
35,47,67125248,12.304633930931526
36,48,67125248,10.649449498870885
37,49,67125248,12.352967654943368
38,50,67125248,10.574343940194725
39,51,67125248,12.350422083889828
40,53,67125248,12.354422738164322
41,55,67125248,12.354349975861943
42,56,67125248,10.66818900035505
43,57,67125248,12.35325864416655
44,58,67125248,10.165658812522167
45,59,67125248,12.351874294542672
46,61,67125248,12.352094769521344
47,63,67125248,12.353620126434349
48,64,67125248,10.431001645955474
49,65,67125248,12.351874294542672
50,66,67125248,10.379901924399645
51,67,67125248,12.298646118735684
52,69,67125248,12.301963945161575
53,71,67125248,12.352458456788453
54,72,67125248,10.199418289628069
55,73,67125248,12.35325637076011
56,74,67125248,10.162703794576823
57,75,67125248,12.353185895575525
58,77,67125248,12.350567516830289
59,79,67125248,12.302543395973284
60,80,67125248,10.454239180272312
61,81,67125248,12.351658373068572
62,82,67125248,10.449083690741267
63,83,67125248,12.351656100251098
64,85,67125248,12.352894909779573
65,87,67125248,12.353622399974677
66,88,67125248,10.395332129828043
67,89,67125248,12.352312979311677
68,90,67125248,10.695985908917224
69,91,67125248,12.353476895080767
70,93,67125248,12.352312979311677
71,95,67125248,12.352458456788453
72,96,67125248,10.578451714372616
73,97,67125248,12.352894909779573
74,98,67125248,10.757918479880082
75,99,67125248,12.353474621593996
76,101,67125248,12.352094769521344
77,102,67125248,10.867886013337376
78,104,67125248,10.623990012457522
79,105,67125248,12.352749422022281
80,106,67125248,10.584323118283809
81,107,67125248,12.353838390121824
82,109,67125248,12.353401870459164
83,111,67125248,12.35224024185827
84,112,67125248,10.597636274047467
85,113,67125248,12.35224024185827
86,114,67125248,10.713466853892951
87,115,67125248,12.35224024185827
88,117,67125248,12.351803835126615
89,118,67125248,10.784022964702919
90,120,67125248,10.878594683615981
91,121,67125248,12.351003836203018
92,122,67125248,10.69516788921743
93,123,67125248,12.352749422022281
94,125,67125248,12.352967654943368
95,127,67125248,12.35318362219586
96,128,67125248,10.82174297371209
97,129,67125248,12.352022034637795
98,130,67125248,10.775159804861573
99,131,67125248,12.306149843893515
100,133,67125248,12.353913420045675
101,135,67125248,12.355004867439801
102,136,67125248,10.660869504451265
103,137,67125248,12.352603937691947
104,138,67125248,10.618667461422543
105,139,67125248,12.351076559095704
106,141,67125248,12.306368689560369
107,143,67125248,12.312364025688861
108,144,67125248,10.84154428889746
109,145,67125248,12.352674406236508
110,146,67125248,10.636757614503777
111,147,67125248,12.349113341537223
112,149,67125248,12.354058935223009
113,151,67125248,12.350931114166709
114,152,67125248,10.72990892918542
115,153,67125248,12.351367459230518
116,154,67125248,10.66444666938447
117,155,67125248,12.353113147841327
118,157,67125248,12.353622399974677
119,159,67125248,12.354349975861943
120,160,67125248,10.682694973382882
121,161,67125248,12.351874294542672
122,162,67125248,10.723436369001147
123,163,67125248,12.351076559095704
124,165,67125248,12.353767908296271
125,166,67125248,10.834151184311594
126,168,67125248,10.75378215328933
127,169,67125248,12.351367459230518
128,170,67125248,10.731334421517266
129,171,67125248,12.354932098280292
130,173,67125248,12.353040400963948
131,175,67125248,12.353695153707006
132,176,67125248,10.97518611557838
133,177,67125248,12.352022034637795
134,178,67125248,10.753230883389271
135,179,67125248,12.353404143919157
136,181,67125248,12.355223180061643
137,183,67125248,12.355368726095787
138,184,67125248,11.050232980028989
139,185,67125248,12.352603937691947
140,186,67125248,10.760567399216137
141,187,67125248,12.352674406236508
142,189,67125248,12.353622399974677
143,191,67125248,12.353620126434349
144,192,67125248,10.71866751446955
145,193,67125248,12.352894909779573
146,194,67125248,10.813655586865593
147,195,67125248,12.352674406236508
148,197,67125248,12.352456183676527
149,199,67125248,12.353549647099268
150,201,67321856,12.353067052441654
151,203,67321856,12.353284659210495
152,204,67321856,11.296051239569856
153,205,67321856,12.35415516295676
154,206,67321856,10.810496040676663
155,207,67321856,12.354007803436492
156,209,67321856,12.352196702025047
157,211,67321856,12.353719895748636
158,212,67321856,11.235420974544095
159,213,67321856,12.354663013467349
160,214,67321856,11.007333932735795
161,215,67321856,12.354805853946436
162,217,67321856,12.35459046083811
163,219,67321856,12.353067052441654
164,220,67338240,11.32403339180481
165,221,67338240,12.352011821848297
166,222,67338240,10.97704443422893
167,223,67338240,12.353462077604298
168,225,67338240,12.355130292786077
169,227,67338240,12.354767598986127
170,228,67338240,11.350297645484902
171,229,67338240,12.343896678114492
172,230,67338240,11.197848573326207
173,231,67338240,12.33948130677313
174,233,67338240,12.348530332443449
175,235,67338240,12.307219924838828
176,236,67338240,11.388445786604645
177,237,67338240,12.348242749985559
178,238,67338240,10.940688189548235
179,239,67338240,12.354622527428475
180,241,67338240,12.338538473462654
181,243,67338240,12.353607121910393
182,244,67338240,11.356974695412111
183,245,67338240,12.352301845758019
184,246,67338240,10.999711033599654
185,247,67338240,12.353026965120957
186,249,67338240,12.351139566389202
187,251,67338240,12.344765647729403
188,252,67338240,11.307484292697868
189,253,67338240,12.354549992927229
190,254,67338240,11.524791700290079
191,255,67338240,12.353097215582407
192,257,67338240,12.29830319524989
193,259,67338240,12.351431814884359
194,260,67338240,11.566600816279136
195,261,67338240,12.344113909048962
196,262,67338240,11.533635024389291
197,263,67338240,12.321707063977387
198,265,67338240,12.291117637502943
199,267,67338240,12.35288193443776
200,268,67338240,11.57576513956777
201,269,67338240,12.354112537275206
202,270,67338240,11.622371111974479
203,271,67338240,12.354332394533643
204,273,67338240,12.351214326315725
205,275,67338240,12.352807154322402
206,276,67338240,11.675962251705924
207,277,67338240,12.350996845406195
208,278,67338240,11.01917786340837
209,279,67338240,12.35389722074078
210,281,67338240,12.353679645340694
211,283,67338240,12.353389556728471
212,284,67338240,11.40857383339455
213,285,67338240,12.354985212710739
214,286,67338240,11.010416021146307
215,287,67338240,12.333044871002393
216,289,67338240,12.353822428332565
217,291,67338240,12.354549992927229
218,292,67338240,11.33916820127196
219,293,67338240,12.352154566289366
220,294,67338240,10.977674341566859
221,295,67338240,12.352156832100745
222,297,67338240,12.354330127924047
223,299,67338240,12.344258733919643
224,300,67338240,11.420707705515783
225,301,67338240,12.352954449353673
226,302,67338240,10.96823331576372
227,303,67338240,12.354477459277687
228,305,67338240,12.354257596856131
229,307,67338240,12.354912673950764
230,308,67338240,11.426166775490147
231,309,67338240,12.353677378970607
232,310,67338240,11.082318565903254
233,311,67338240,12.353462077604298
234,313,67338240,12.353752169622515
235,315,67338240,12.354985212710739
236,316,67338240,11.399118381939696
237,317,67338240,12.352664394798097
238,318,67338240,10.982832636925693
239,319,67338240,12.352374353863501
240,321,67338240,12.34925500906137
241,323,67338240,12.324014007356535
242,324,67338240,11.395908332126131
243,325,67338240,12.352227072665793
244,326,67338240,11.021430482891704
245,327,67338240,12.352736907159986
246,329,67338240,12.352301845758019
247,331,67338240,12.353607121910393
248,332,67338240,11.379577467644923
249,333,67338240,12.35520283410147
250,334,67338240,11.143294867496571
251,335,67338240,12.348242749985559
252,337,67338240,12.354910407128239
253,339,67338240,12.33550294134511
254,340,67338240,11.435232168111476
255,341,67338240,12.343894415332493
256,342,67338240,11.052051863609455
257,343,67338240,12.348097831618082
258,345,67338240,12.320841337484788
259,347,67338240,12.353969747577255
260,348,67338240,11.344790399771952
261,349,67338240,12.35389722074078
262,350,67338240,11.042830213277817
263,351,67338240,12.3552753762687
264,353,67338240,12.353026965120957
265,355,67338240,12.354912673950764
266,356,67338240,11.347545266665858
267,357,67338240,12.297294780105693
268,358,67338240,11.005233587857122
269,359,67338240,12.354767598986127
270,361,67338240,12.353389556728471
271,363,67338240,12.35258961731653
272,364,67338240,11.314658561928791
273,365,67338240,12.354620260712418
274,366,67338240,11.000111735567
275,367,67338240,12.354912673950764
276,369,67338240,12.350851862388032
277,371,67338240,12.353607121910393
278,372,67338240,11.382099144494742
279,373,67338240,12.350342183481654
280,374,67338240,11.086580819977309
281,375,67338240,12.337455636490288
282,377,67338240,12.353604855566918
283,379,67338240,12.336153771043136
284,380,67338240,11.44368959361774
285,381,67338240,12.3531719992097
286,382,67338240,10.97269610947954
287,383,67338240,12.329935279880733
288,385,67338240,12.338321438714464
289,387,67338240,12.352952183249663
290,388,67338240,11.350664985317412
291,389,67338240,12.322212127284056
292,390,67338240,11.027321582886145
293,391,67338240,12.26582750232882
294,393,67338240,12.354404926479829
295,395,67338240,12.353024698990343
296,396,67338240,11.311250789280201
297,397,67338240,12.354982945861597
298,398,67338240,11.108996889432566
299,399,67338240,12.353969747577255
300,401,67338240,12.352952183249663
301,403,67338240,12.29995429864865
302,404,67338240,11.351401649856578
303,405,67338240,12.352374353863501
304,406,67338240,10.839193448925444
305,407,67338240,12.354259863439113
306,409,67338240,12.354840136042565
307,411,67338240,12.353534599331601
308,412,67338240,11.322205537197545
309,413,67338240,12.353389556728471
310,414,67338240,10.944217810904197
311,415,67338240,12.354259863439113
312,417,67338240,12.352519372628237
313,419,67338240,12.354549992927229
314,420,67338240,11.332327073576392
315,421,67338240,12.354912673950764
316,422,67338240,10.927906389503223
317,423,67338240,12.343025568364075
318,425,67338240,12.354912673950764
319,427,67338240,12.347011052275574
320,428,67338240,11.310156480289429
321,429,67338240,12.349982035753527
322,430,67338240,10.932505034538787
323,431,67338240,12.354332394533643
324,433,67338240,12.353607121910393
325,435,67338240,12.297440754243267
326,436,67338240,11.30347363447062
327,437,67338240,12.353314770467064
328,438,67338240,11.016814414833005
329,439,67338240,12.346866162816772
330,441,67338240,12.354622527428475
331,443,67338240,12.355057752322505
332,444,67338240,11.278815623058629
333,445,67338240,12.354912673950764
334,446,67338240,10.842769612657936
335,447,67338240,12.353749903225818
336,449,67338240,12.353607121910393
337,451,67338240,12.350561906562824
338,452,67338240,11.269392891193627
339,453,67338240,12.331669411789267
340,454,67338240,10.922064314376822
341,455,67338240,12.354114803804961
342,456,67338240,11.300319115658953
343,459,67338240,12.354332394533643
344,460,67338240,11.218324564241497
345,461,67338240,12.350054516626884
346,462,67338240,10.875662283609605
347,463,67338240,12.352664394798097
348,465,67338240,12.349619644147799
349,467,67338240,12.350124733284254
350,468,67338240,11.201603864072121
351,469,67338240,12.340132556352577
352,470,67338240,10.875776457705465
353,471,67338240,12.316800635646931
354,473,67338240,12.35237208797232
355,475,67338240,12.35389722074078
356,476,67354624,11.155516939487422
357,477,67354624,12.352912134366981
358,478,67354624,10.893509547542012
359,479,67354624,12.353999688190681
360,480,67354624,11.23842888373271
361,481,67354624,12.353566909459799
362,482,67354624,10.840267275117718
363,483,67354624,12.354146975826236
364,484,67354624,11.187418332054662
365,485,67354624,12.349435512778085
366,486,67354624,11.052825267567494
367,487,67354624,12.35479961560593
368,488,67354624,11.042851355390304
369,489,67354624,12.353421901379324
370,490,67354624,11.045053344683184
371,491,67354624,12.354582061351191
372,492,67354624,11.195449657178475
373,493,67354624,12.352479431828623
374,494,67354624,10.870893957069454
375,495,67354624,12.351679804822014
376,496,67354624,11.078365626429932
377,497,67354624,12.354507278845656
378,498,67354624,10.77346298349894
379,499,67354624,12.353709655113974
380,500,67354624,11.187892192998572
381,501,67354624,12.353711920944606
382,502,67354624,10.974621931084757
383,503,67354624,12.354797349376286
384,504,67354624,11.235129529564794
385,505,67354624,12.353276896703067
386,506,67354624,10.914300186980645
387,507,67354624,12.354074464551376
388,508,67354624,11.182245639223595
389,509,67354624,12.352334449276837
390,510,67354624,11.239028974513602
391,511,67354624,12.351972007786618
392,512,67354624,11.449088963258001
393,513,67354624,12.354289734886155
394,514,67354624,11.2082670895618
395,515,67354624,12.354364514758096
396,516,67354624,11.513723125165493
397,517,67354624,12.337706461510281
398,518,67354624,11.270806932701921
399,519,67354624,12.354364514758096
400,520,67354624,11.509127298954818
401,521,67354624,12.333657935610091
402,522,67354624,11.289304993619927
403,523,67354624,12.352549658975661
404,524,67354624,11.45263982653715
405,525,67354624,12.165705217473919
406,526,67354624,11.361148215275183
407,527,67354624,12.353929444555208
408,528,67354624,11.521412019317696
409,529,67354624,12.325643282125494
410,530,67354624,11.295848226422018
411,531,67354624,12.352986897562714
412,532,67354624,11.417106142812006
413,533,67354624,12.3542194879523
414,534,67354624,11.091323491852348
415,535,67354624,12.3548721353935
416,536,67354624,11.166702532503898
417,537,67354624,12.352261959277195
418,538,67354624,10.887256819464659
419,539,67354624,12.152708370358809
420,540,67354624,11.156108208311235
421,541,67354624,12.348348762362397
422,542,67354624,10.959191974940238
423,543,67354624,12.32059067460252
424,544,67354624,11.086943653880658
425,545,67354624,12.286716335522717
426,546,67354624,10.947791639874728
427,547,67354624,12.352624417783844
428,548,67354624,11.14323089819856
429,549,67354624,12.30201220436559
430,550,67354624,10.87589142681738
431,551,67354624,12.314826160782376
432,552,67354624,11.116455152185129
433,553,67354624,12.353202129997017
434,554,67354624,11.026017814922621
435,555,67354624,12.353639414776653
436,556,67354624,11.098577271608278
437,557,67354624,12.353131895430902
438,558,67354624,10.820706534792167
439,559,67354624,12.353784427963673
440,560,67354624,11.067645372620476
441,561,67354624,12.354001954127705
442,562,67354624,10.919167716628872
443,563,67354624,12.353566909459799
444,564,67354624,11.151259807178402
445,565,67354624,12.353131895430902
446,566,67354624,11.003422670852963
447,567,67354624,12.34754967003966
448,568,67354624,11.132504400219032
449,569,67354624,12.3542194879523
450,570,67354624,10.942612334816076
451,571,67354624,12.34479778098478
452,572,67354624,11.104608285661811
453,573,67354624,12.35472483046666
454,574,67354624,11.029946828989262
455,575,67354624,12.35443702943786
456,576,67354624,11.133036186247288
457,577,67354624,12.349507969607078
458,578,67354624,10.856090041820881
459,579,67354624,12.353276896703067
460,580,67354624,11.065201680875207
461,581,67354624,12.354292000929581
462,582,67354624,10.92965710980963
463,583,67354624,12.352334449276837
464,584,67354624,11.096644562218412
465,585,67354624,12.353711920944606
466,586,67354624,10.92296425168155
467,587,67354624,12.350957284758314
468,588,67354624,11.112579781112881
469,589,67354624,12.34936305679932
470,590,67354624,10.950981342174593
471,591,67354624,12.35146462543156
472,592,67354624,11.116277189067219
473,593,67354624,12.3548721353935
474,594,67354624,11.045401107481675
475,595,67354624,12.354582061351191
476,596,67354624,11.083907731609793
477,597,67354624,12.312086586322183
478,598,67354624,10.910847245665929
479,599,67354624,12.34364171992761
480,600,67354624,11.114107231313659
481,601,67354624,12.35472483046666
482,602,67354624,11.011134296208768
483,603,67354624,12.353929444555208
484,604,67354624,11.099513698347959
485,605,67354624,12.35625017313156
486,606,67354624,10.92302093638
487,607,67354624,12.35276940714262
488,608,67354624,11.109297092846235
489,609,67354624,12.352622152352119
490,610,67354624,10.949272341972287
491,611,67354624,12.353637148972618
492,612,67354624,11.134035492570794
493,613,67354624,12.354146975826236
494,614,67354624,11.044647649094557
495,615,67354624,12.353421901379324
496,616,67354624,11.145120857104374
497,617,67354624,12.353131895430902
498,618,67354624,11.018744976672457
499,619,67354624,12.352767141657713
500,620,67354624,11.132329602757654
501,621,67354624,12.355597380096105
502,622,67354624,10.995660807723175
503,623,67354624,12.353349398615677
504,624,67354624,11.049111940407462
505,625,67354624,12.353347132918024
506,626,67354624,10.99675409860154
507,627,67354624,12.353639414776653
508,628,67354624,11.151734302631496
509,629,67354624,12.3548721353935
510,630,67354624,10.922792429783916
511,631,67354624,12.352404674775352
512,632,67354624,11.152443351629701
513,633,67354624,12.353709655113974
514,634,67354624,11.158178142869875
515,635,67354624,12.354364514758096
516,636,67354624,11.106481502093432
517,637,67354624,12.353421901379324
518,638,67354624,11.114811503427946
519,639,67354624,12.35465457858479
520,640,67354624,11.134803037451698
521,641,67354624,12.35283963758688
522,642,67354624,10.936926439402058
523,643,67354624,12.353566909459799
524,644,67354624,11.014766296115138
525,645,67354624,12.352116981830338
526,646,67354624,10.975364076799787
527,647,67354624,12.353129629813035
528,648,67354624,11.121741602959782
529,649,67354624,12.35486986913725
530,650,67354624,10.96787212159938
531,651,67354624,12.353349398615677
532,652,67354624,11.105192339113957
533,653,67354624,12.353639414776653
534,654,67354624,10.9281799347729
535,655,67354624,12.354944656032421
536,656,67354624,11.07638348263635
537,657,67354624,12.351827037145913
538,658,67354624,10.908698437871493
539,659,67354624,12.355740172678647
540,660,67354624,11.192951068641564
541,661,67354624,12.353131895430902
542,662,67354624,10.830673126353842
543,663,67354624,12.35117244647184
544,664,67354624,11.167117244526
545,665,67354624,12.33351565296767
546,666,67354624,10.788869982298499
547,667,67354624,12.35320439564148
548,668,67354624,11.113520406058672
549,669,67354624,12.356030301106886
550,670,67354624,10.961018232284077
551,671,67354624,12.353349398615677
552,672,67354624,11.074516762477542
553,673,67354624,12.354509544968886
554,674,67354624,11.003133268119536
555,675,67354624,12.35160958756525
556,676,67354624,11.150255560880602
557,677,67354624,12.353929444555208
558,678,67354624,10.957480411289708
559,679,67354624,12.35175228798898
560,680,67354624,11.119626419409126
561,681,67354624,12.352986897562714
