idx,og Index,data (B),bandwidth (GB/s)
0,0,16785408,9.642568968399454
1,1,16785408,12.30323944446562
2,2,16785408,11.758266837870156
3,3,16785408,12.309022657290965
4,4,16785408,11.993792104082292
5,6,16785408,12.207889079277711
6,8,16785408,11.91776410145722
7,10,16785408,11.767235233127204
8,12,16785408,11.638267718719232
9,14,16785408,11.803511643949767
10,16,16785408,11.876210233174186
11,17,16785408,12.323762367514515
12,18,16785408,11.356546989996197
13,19,16785408,11.835479203625933
14,20,16785408,11.422584524050132
15,22,16785408,11.695355415894428
16,24,16785408,11.846429960258787
17,26,16785408,11.38514777949231
18,28,16785408,11.812823551600763
19,30,16785408,11.629744539834284
20,32,16785408,11.348930041986979
21,33,16785408,11.703705769643758
22,34,16785408,11.41214696122004
23,35,16785408,12.317983378281689
24,36,16785408,11.69613775534379
25,38,16785408,11.578658812086763
26,40,16785408,11.88051402411576
27,42,16785408,11.851783231670076
28,44,16785408,11.7102296153822
29,46,16785408,11.690134351444883
30,48,16785408,11.55316460226694
31,49,16785408,12.273022599799512
32,50,16785408,11.333244659123057
33,51,16785408,12.23181067934634
34,52,16785408,11.614045284334809
35,54,16785408,11.323947424699435
36,56,16785408,11.828264955150932
37,58,16785408,11.676862426460511
38,60,16785408,11.925621737141103
39,62,16785408,11.883474690265487
40,64,16785408,11.802714874856292
41,65,16785408,11.916410383104878
42,66,16785408,11.408423881461303
43,67,16785408,11.985570537848776
44,68,16785408,11.58326116254885
45,70,16785408,11.796352882639507
46,72,16785408,11.538670620722083
47,74,16785408,11.892635176688309
48,76,16785408,11.850988299683982
49,78,16785408,11.848846697933402
50,80,16785408,11.031963326268054
51,81,16785408,12.255530917722373
52,82,16785408,11.845100756769574
53,83,16785408,11.956338521766632
54,84,16785408,11.48485862369785
55,86,16785408,11.480082865238662
56,88,16785408,11.79316202925982
57,90,16785408,11.944359211556252
58,92,16785408,11.849114355821985
59,94,16785408,11.816806984172128
60,96,16785408,11.466280663955631
61,97,16785408,11.94000904815153
62,98,16785408,11.536132956800174
63,99,16785408,11.96042787150174
64,100,16785408,11.436531010062676
65,102,16785408,11.87137219401106
66,104,16785408,11.922911037427868
67,106,16785408,11.828540019449495
68,108,16785408,11.67790227256125
69,109,16785408,12.295173684792665
70,110,16785408,11.76565158115719
71,112,16785408,11.422087064332993
72,113,16785408,11.580959530066641
73,114,16785408,11.27283423795881
74,115,16785408,11.969161173655223
75,116,16785408,11.198954923050339
76,118,16785408,11.785486194781232
77,120,16785408,11.784683583495806
78,122,16785408,11.88051402411576
79,124,16785408,11.826139889583104
80,126,16785408,12.022372457439257
81,128,16785408,11.868149023844607
82,129,16785408,12.332164677600895
83,130,16785408,11.533850013433499
84,131,16785408,11.76592374100316
85,132,16785408,11.500974664211906
86,134,16785408,11.570485879662979
87,136,16785408,11.800325212854133
88,138,16785408,11.915056972250696
89,140,16785408,11.376505393288127
90,141,16785408,12.323481884518163
91,142,16785408,11.683112414075355
92,143,16785408,12.318842196421494
93,144,16785408,11.268482782834727
94,145,16785408,12.324929675814868
95,146,16785408,11.60812583635603
96,147,16785408,12.327527504002585
97,148,16785408,11.60915347571059
98,150,16785408,12.065798515766744
99,152,16785408,11.827739867921498
100,154,16785408,11.490149583941426
101,156,16785408,11.865992827558125
102,158,16785408,11.863585861013183
103,160,16785408,11.671665972479596
104,161,16785408,11.54629031559093
105,162,16785408,11.18342774222176
106,163,16785408,12.083300399311517
107,164,16785408,11.647045843906318
108,166,16785408,11.950618127760643
109,168,16785408,11.914245073293717
110,170,16785408,11.886975562360313
111,172,16785408,11.780986364287179
112,174,16785408,11.534610894152847
113,176,16785408,11.405943177563488
114,177,16785408,11.972439450957344
115,178,16785408,11.66025813801631
116,179,16785408,11.992412491810564
117,180,16785408,11.587107249066014
118,182,16785408,11.917222577209797
119,184,16785408,11.846438320973157
120,186,16785408,11.837348836815693
121,188,16785408,11.507534732577152
122,190,16785408,11.84002076626385
123,192,16785408,11.30344967376687
124,193,16785408,12.172194843204766
125,194,16785408,11.306365763661274
126,195,16785408,12.324920626062847
127,196,16785408,11.386383478104554
128,198,16785408,11.392813437288108
129,200,16785408,11.873521946913172
130,202,16785408,11.85018510831166
131,204,16785408,11.877016956444214
132,206,16785408,11.541971253385666
133,208,16785408,11.629228873041837
134,209,16785408,11.996260773859722
135,210,16785408,11.665444436722497
136,211,16785408,12.178129380319866
137,212,16785408,11.361474268595375
138,214,16785408,11.784956624550308
139,216,16785408,11.580192522488899
140,218,16785408,11.896141449018991
141,220,16785408,11.560031156574182
142,222,16785408,11.899379843642334
143,224,16785408,11.318327557991111
144,225,16785408,12.324341469574998
145,226,16785408,11.433298186246864
146,227,16785408,11.714683721696309
147,228,16785408,11.520424320167356
148,230,16785408,11.584284404005297
149,232,16785408,11.888861501848625
150,234,16785408,11.669848306088127
151,236,16785408,11.763013108240216
152,238,16785408,11.668031205750667
153,240,16785408,11.778597226676172
154,241,16785408,12.122123909143694
155,242,16785408,11.581726639255752
156,243,16785408,12.231516540018713
157,244,16785408,11.629228873041837
158,246,16785408,11.846965069770823
159,248,16785408,11.914515693985036
160,250,16785408,11.410409221643427
161,252,16785408,11.65559441045027
162,254,16785408,11.647045843906318
163,256,16785408,11.848043796815752
164,257,16785408,12.073296832607827
165,258,16785408,11.618675814637307
166,259,16785408,12.094732200243834
167,260,16785408,11.802714874856292
168,262,16785408,11.46552877104951
169,264,16785408,11.704219901501464
170,266,16785408,11.693000879827295
171,268,16785408,11.625105184386932
172,270,16785408,11.810953346285077
173,272,16785408,11.434038068937706
174,273,16785408,12.056646545210068
175,274,16785408,11.616866574343025
176,275,16785408,11.012038486417833
177,276,16785408,11.591708314543736
178,278,16785408,11.525233709030111
179,280,16785408,11.623044436550522
180,282,16785408,11.516385321956962
181,284,16785408,11.415375596512835
182,286,16785408,11.596577417449367
183,288,16785408,11.414878764489266
184,289,16785408,11.280349349673594
185,290,16785408,11.279144136365133
186,291,16785408,11.903160199806548
187,292,16785408,11.072709353886667
188,294,16785408,11.672453262644328
189,296,16785408,11.756685598777922
190,298,16785408,11.690655433880973
191,300,16785408,11.817613977183441
192,302,16785408,11.277446662702692
193,304,16785408,11.38761944498153
194,305,16785408,11.83333486078457
195,306,16785408,11.603760398023157
196,307,16785408,11.216428711755814
197,308,16785408,11.181997321981733
198,310,16785408,11.863585861013183
199,312,16785408,11.239990223421602
200,314,16785408,11.836013324269972
201,316,16785408,11.722537733292734
202,318,16785408,11.608390757220748
203,320,16785408,11.197998619047143
204,321,16785408,11.623044436550522
205,322,16785408,11.66751213815778
206,323,16785408,11.426814681789498
207,324,16785408,11.219787521038679
208,326,16785408,11.701086846652915
209,328,16785408,11.527766579560947
210,330,16785408,11.583005380428819
211,332,16785408,11.572017425511042
212,334,16785408,11.723053521055936
213,336,16785408,11.561559935777561
214,337,16785408,12.093059177821646
215,338,16785408,11.288124992854726
216,339,16785408,11.888044749238114
217,340,16785408,11.371079748724553
218,342,16785408,10.962557750408514
219,344,16785408,11.397516848019826
220,346,16785408,11.552393321041363
221,348,16785408,11.235656562073068
222,350,16785408,11.676862426460511
223,352,16785408,11.607868954943752
224,353,16785408,11.521689559619261
225,354,16785408,11.467032655484333
226,355,16785408,11.528019927846033
227,356,16785408,11.534610894152847
228,358,16785408,11.317343128648465
229,360,16785408,11.516638170226663
230,362,16785408,11.853666390782259
231,364,16785408,11.527766579560947
232,366,16785408,11.804574170095664
233,368,16785408,11.28423203877621
234,369,16785408,12.045857108102929
235,370,16785408,11.293228600743445
236,371,16785408,12.016322042488854
237,372,16785408,11.207569014846246
238,374,16785408,11.640592189030023
239,376,16785408,11.532082938290944
240,378,16785408,11.754314537391258
241,380,16785408,11.583005380428819
242,382,16785408,11.40569516650823
243,384,16785408,11.490645123970676
244,385,16785408,11.088860672859806
245,386,16785408,11.434536570212888
246,387,16785408,11.69430431205233
247,388,16785408,11.447762710731581
248,390,16785408,11.780448930521255
249,392,16785408,11.896942450249876
250,394,16785408,11.334224203534355
251,396,16785408,11.50779508189978
252,398,16785408,11.526753297766192
253,400,16785408,11.248185155973053
254,401,16785408,11.93186102652029
255,402,16785408,11.237333954601873
256,403,16785408,12.269281710772146
257,404,16785408,11.756422100275605
258,406,16785408,11.587611187623613
259,408,16785408,11.832809323336257
260,410,16785408,11.556728144992276
261,412,16785408,11.406687275447982
262,414,16785408,11.756957343979828
263,416,16785408,11.534103629186037
264,417,16785408,11.875134772605717
265,418,16785408,11.656371439285566
266,419,16785408,11.851515453195596
267,420,16785408,11.244809325227353
268,422,16785408,11.620469528941085
269,424,16785408,11.686227713335482
270,426,16785408,11.87809275797161
271,428,16785408,11.569983429512012
272,430,16785408,11.779134491499018
273,432,16785408,11.70918400446452
274,433,16785408,12.035621993856497
275,434,16785408,11.771732818667124
276,435,16785408,11.821076146021426
277,436,16785408,11.406935329651398
278,438,16785408,11.438027296595797
279,440,16785408,11.486870658311371
280,442,16785408,11.892365549040557
281,444,16785408,11.697702748283543
282,446,16785408,11.409912821820036
283,448,16785408,11.624589928924475
284,449,16785408,11.889400451623322
285,450,16785408,11.616094803299347
286,451,16785408,10.45434858566098
287,452,16785408,11.255908957098494
288,454,16785408,11.141146969296715
289,456,16785408,11.35999794259432
290,458,16785408,11.390594590192858
291,460,16785408,11.726460497424572
292,462,16785408,11.723839570646202
293,464,16785408,11.266546519939993
294,465,16785408,12.040594863378256
295,466,16785408,11.433788834599296
296,467,16785408,11.43877558669577
297,468,16785408,11.461512514151568
298,470,16785408,11.164630565135406
299,472,16785408,11.812549217758717
300,474,16785408,11.701095003471554
301,476,16785408,11.7464179019875
302,478,16785408,11.582749609604926
303,480,16785408,11.575848064566628
304,481,16785408,11.692479588289833
305,482,16785408,11.187721199566498
306,483,16785408,11.657407638906252
307,484,16785408,11.587875172933702
308,486,16785408,11.70186995310303
309,488,16785408,11.810953346285077
310,490,16785408,11.655327330713696
311,492,16785408,11.450261640816377
312,494,16785408,11.696398558419949
313,496,16785408,11.252769883935377
314,497,16785408,11.850452826672013
315,498,16785408,11.541209401336232
316,499,16785408,11.857417752422288
317,500,16785408,11.396270994496518
318,502,16785408,11.131925865894889
319,504,16785408,11.344274305116729
320,506,16785408,11.431795350978575
321,508,16785408,11.311493505399532
322,510,16785408,11.740116440099934
323,512,16793600,11.655326154247625
324,513,16793600,11.296300531532053
325,514,16793600,12.003762612327987
326,515,16793600,11.503813117837774
327,516,16793600,11.842057015849019
328,518,16793600,11.927374381031656
329,520,16793600,11.95536103288123
330,522,16793600,12.144045667443073
331,524,16793600,11.436377590594626
332,526,16793600,11.70340357354664
333,528,16793600,11.438371699402186
334,529,16793600,12.276131077173192
335,530,16793600,11.669061588875703
336,531,16793600,12.201636223607538
337,532,16793600,11.74925647137511
338,534,16793600,11.927374381031656
339,536,16793600,11.694275907644077
340,538,16793600,11.868570507800905
341,540,16793600,11.831644802660316
342,542,16793600,11.8279115498497
343,544,16793600,11.573579852642505
344,545,16793600,11.104836544603572
345,546,16793600,11.350301742462184
346,547,16793600,10.639048658620565
347,548,16793600,11.519721665261594
348,550,16793600,11.775355586485436
349,552,16793600,11.688293610470021
350,554,16793600,11.490966915983389
351,556,16793600,11.812727859751993
352,558,16793600,11.726678234881309
353,560,16793600,11.79892588855883
354,561,16793600,11.646523678846776
355,562,16793600,11.650410000971238
356,563,16793600,11.786463001317358
357,564,16793600,11.764277328042995
358,566,16793600,11.769026134391828
359,568,16793600,11.864545683191988
360,570,16793600,11.801844600425591
361,572,16793600,11.917885699402955
362,574,16793600,11.770345927730569
363,576,16793600,11.77219413577391
364,577,16793600,11.387244002975374
365,578,16793600,11.748738628063881
366,579,16793600,11.61096465118916
367,580,16793600,11.707842154394658
368,582,16793600,11.875015910100156
369,584,16793600,11.548366555562968
370,586,16793600,11.30312051362646
371,588,16793600,11.48643980966282
372,590,16793600,11.878241237165904
373,592,16793600,11.613277098119108
374,593,16793600,12.193414789278485
375,594,16793600,11.76189612388876
376,595,16793600,11.315549919581812
377,596,16793600,11.351774830148555
378,598,16793600,11.875276223071566
379,600,16793600,11.749001653882425
380,602,16793600,11.569242470065232
381,604,16793600,11.797599678533393
382,606,16793600,11.793349527278652
383,608,16793600,11.678141800245752
384,609,16793600,12.043430243398689
385,610,16793600,11.666726875098997
386,611,16793600,11.058970728655625
387,612,16793600,11.421195343545143
388,614,16793600,11.765596056462755
389,616,16793600,11.952093694575952
390,618,16793600,11.6009546803168
391,620,16793600,11.895742251362156
392,622,16793600,11.855165033136519
393,624,16793600,11.576643493066877
394,625,16793600,11.341716344981707
395,626,16793600,11.481665065685796
396,627,16793600,10.5388469998337
397,628,16793600,11.635678331029562
398,630,16793600,11.74347237169388
399,632,16793600,11.808475106615617
400,634,16793600,11.707319793677451
401,636,16793600,11.601980549604589
402,638,16793600,11.809546312470289
403,640,16793600,11.842591469520503
404,641,16793600,12.146004322153786
405,642,16793600,11.716729423896307
406,643,16793600,11.95073283064197
407,644,16793600,11.672175994528667
408,646,16793600,11.771137945826522
409,648,16793600,11.585844153783427
410,650,16793600,11.928179201118267
411,652,16793600,11.924935168958358
412,654,16793600,11.635170450923825
413,656,16793600,11.805295849419492
414,657,16793600,12.25406818631239
415,658,16793600,11.604289419004704
416,659,16793600,11.964091198268536
417,660,16793600,11.641881268561319
418,662,16793600,11.566692586850408
419,664,16793600,11.448852190120647
420,666,16793600,11.748212611755488
421,668,16793600,11.826312305460487
422,670,16793600,11.96899419282556
423,672,16793600,11.90005810575247
424,673,16793600,11.958621642387822
425,674,16793600,11.496009090784629
426,675,16793600,11.730356040222516
427,676,16793600,11.57102805734527
428,678,16793600,11.253425896764076
429,680,16793600,11.519468804982697
430,681,16793600,11.802375430458921
431,682,16793600,11.242584932274431
432,684,16793600,11.245957780782307
433,686,16793600,11.64808274400242
434,688,16793600,11.424917171799635
435,689,16793600,12.150231195597046
436,690,16793600,11.578183904051977
437,691,16793600,12.067800897381726
438,692,16793600,11.611221544258724
439,694,16793600,11.68855393678537
440,696,16793600,11.835638991021925
441,698,16793600,11.810335309270918
442,700,16793600,11.488199927076856
443,702,16793600,11.824180652211261
444,704,16793600,11.742158597731642
445,705,16793600,11.573579852642505
446,706,16793600,11.509111082631959
447,707,16793600,11.483926291596374
448,708,16793600,11.34956534197851
449,710,16793600,11.562615110798985
450,712,16793600,11.927374381031656
451,714,16793600,11.7227490550167
452,716,16793600,11.550654133099114
453,718,16793600,11.463106470727563
454,720,16793600,11.520227419123595
455,721,16793600,12.28677431934229
456,722,16793600,11.417219785695979
457,723,16793600,12.152754661054972
458,724,16793600,11.104373947410009
459,726,16793600,11.689855742324216
460,728,16793600,11.90896100810898
461,730,16793600,11.75110628447955
462,732,16793600,11.67112956346545
463,734,16793600,11.80609257816784
464,736,16793600,11.575111470137582
465,737,16793600,11.99553995858533
466,738,16793600,11.702106903250803
467,739,16793600,11.258020206462287
468,740,16793600,11.605315878183434
469,742,16793600,11.796265480596528
470,744,16793600,11.575877430912891
471,746,16793600,11.779848921978562
472,748,16793600,11.872060898605067
473,750,16793600,11.844186766553094
474,752,16793600,11.912204803441101
475,753,16793600,12.075020204605787
476,754,16793600,11.806615489855448
477,755,16793600,10.1299541082967
478,756,16793600,11.303607426877164
479,758,16793600,11.530858518063313
480,760,16793600,11.831644802660316
481,762,16793600,11.410269215115944
482,764,16793600,11.81591943537782
483,766,16793600,11.663607275586198
484,768,16793600,11.68984760513909
485,769,16793600,11.993612395837202
486,770,16793600,11.783824747042395
487,771,16793600,10.875627367807532
488,772,16793600,11.43438417695189
489,774,16793600,11.596853016710666
490,776,16793600,11.666459415468257
491,778,16793600,11.470372280297934
492,780,16793600,11.876897137991417
493,782,16793600,11.816193791882558
494,784,16793600,11.712815076232058
495,785,16793600,12.240340294521527
496,786,16793600,11.806623790414429
497,787,16793600,12.191998420244108
498,788,16793600,11.83644816338268
499,790,16793600,11.624853162992022
500,792,16793600,11.604546016776341
501,794,16793600,11.924384790331318
502,796,16793600,11.879846153954984
503,798,16793600,11.788854164034223
504,800,16793600,11.515424549681594
505,801,16793600,11.339013102901598
506,802,16793600,11.425173670994239
507,803,16793600,11.203463723302413
508,804,16793600,11.58252000642799
509,806,16793600,11.851408561530487
510,808,16793600,11.842850362860771
511,810,16793600,11.697925264957979
512,812,16793600,11.861327788403676
513,814,16793600,11.829244583944979
514,816,16793600,11.553960012191322
515,817,16793600,10.595017056276564
516,818,16793600,11.222142775999519
517,819,16793600,12.033773330591263
518,820,16793600,11.816451532326441
519,822,16793600,11.67503232713672
520,824,16793600,11.616104673321265
521,826,16793600,11.511888155031002
522,828,16793600,11.630520975812455
523,830,16793600,11.620228009332939
524,832,16793600,11.788324549556506
525,833,16793600,10.457581460110918
526,834,16793600,11.352265944351347
527,835,16793600,10.993871199613496
528,836,16793600,11.662311309322503
529,838,16793600,12.002389957603981
530,840,16793600,11.967356572155031
531,842,16793600,11.88792773915875
532,844,16793600,11.952365904555302
533,846,16793600,11.913835815855412
534,848,16793600,11.868838926534986
535,849,16793600,11.244504497507188
536,850,16793600,11.373177651044937
537,851,16793600,11.911402137492942
538,852,16793600,11.710193354582417
539,854,16793600,11.78753021705744
540,856,16793600,11.674504774119994
541,858,16793600,11.926019140033576
542,860,16793600,11.732978601510778
543,862,16793600,11.555995340058091
544,864,16793600,11.688806138961874
545,865,16793600,11.703925584844331
546,866,16793600,11.457850766024077
547,867,16793600,12.133367627976337
548,868,16793600,11.839118382724092
549,870,16793600,11.939305308403853
550,872,16793600,11.63852489237192
551,874,16793600,11.816459846721513
552,876,16793600,11.667237513903546
553,878,16793600,11.932527107106823
554,880,16793600,11.742684072040852
555,881,16793600,12.02631903088218
556,882,16793600,11.50810157028956
557,883,16793600,10.405111352337334
558,884,16793600,11.418205652262007
559,886,16793600,11.855165033136519
560,888,16793600,11.934155208827818
561,890,16793600,11.92411385336129
