idx,og Index,data (B),bandwidth (GB/s)
0,0,33636352,12.236112743052688
1,1,33636352,11.710716711619481
2,2,33636352,12.234256870149322
3,3,33636352,11.614694250758888
4,5,33636352,12.183208385158634
5,7,33636352,12.101157073792685
6,8,33636352,12.191682442544453
7,9,33636352,11.724693578988353
8,10,33636352,11.140273708189222
9,11,33636352,11.384489894830969
10,13,33636352,12.133984685856603
11,15,33636352,12.042508507465625
12,16,33636352,12.201451709440464
13,17,33636352,11.751039594188823
14,18,33636352,12.176434089893839
15,19,33636352,12.214070072210268
16,21,33636352,12.21336048353305
17,23,33636352,12.201876622891374
18,24,33636352,12.231978966278406
19,25,33636352,12.324344208926885
20,26,33636352,12.241380791175933
21,27,33636352,12.178832457718864
22,29,33636352,12.280428664110278
23,31,33636352,12.217335242408195
24,32,33636352,12.204568428828837
25,33,33636352,12.3253512776297
26,34,33636352,12.184479404764923
27,35,33636352,12.32737494456844
28,37,33636352,12.307744547816968
29,39,33636352,12.325355794003526
30,40,33636352,12.2032932148281
31,41,33636352,12.223017959319536
32,42,33636352,12.22884823313243
33,43,33636352,12.256515441641326
34,45,33636352,12.190697097908004
35,47,33636352,12.212650977299578
36,48,33652736,10.970594026483763
37,49,33652736,12.326878578945498
38,50,33652736,10.991006397127482
39,51,33652736,10.734757883105598
40,53,33652736,11.60778199701775
41,55,33652736,11.896676660476656
42,56,33652736,10.998132920503853
43,57,33652736,11.986031087064223
44,58,33652736,11.011602962714766
45,59,33652736,12.064822804927497
46,61,33652736,12.120163178516389
47,63,33652736,12.208670389796776
48,64,33652736,11.157292098361852
49,65,33652736,12.262052088897569
50,66,33652736,10.964421146808016
51,67,33652736,12.309415626456252
52,69,33652736,12.305526688572257
53,71,33652736,12.283679182955362
54,72,33652736,11.084965529054083
55,73,33652736,11.832822318861778
56,74,33652736,11.02557561766871
57,75,33652736,12.329769043547842
58,77,33652736,12.327890087387194
59,79,33652736,12.103846516281857
60,80,33652736,11.027197772850986
61,81,33652736,11.992596198460083
62,82,33652736,10.96796603954991
63,83,33652736,11.40127216333832
64,85,33652736,12.173899328409908
65,87,33652736,12.150831370643163
66,88,33652736,11.04062323762181
67,89,33652736,11.710024218467277
68,90,33652736,10.961564031013005
69,91,33652736,11.893044106707096
70,93,33652736,11.843082934959487
71,95,33652736,12.25219483956937
72,96,33652736,12.260336645480292
73,97,33652736,12.331788656556277
74,98,33652736,11.073523203314744
75,99,33652736,11.319175815730054
76,101,33652736,12.3234118098123
77,103,33652736,12.16221375494174
78,104,33652736,12.116253289394335
79,105,33652736,12.272068417509596
80,106,33652736,11.572272681787686
81,107,33652736,12.325433854792921
82,109,33652736,12.157859408045283
83,111,33652736,12.288128624520656
84,112,33652736,11.17709522775175
85,113,33652736,11.45541601394826
86,114,33652736,11.962580252078885
87,115,33652736,12.237367445358142
88,117,33652736,12.234093154772507
89,119,33652736,12.213491163087117
90,120,33652736,12.202154221239523
91,121,33652736,12.326151659774595
92,122,33652736,12.04244177246037
93,123,33652736,12.10077816240621
94,125,33652736,12.085759177157797
95,127,33652736,12.32803008600712
96,128,33652736,11.108500596476333
97,129,33652736,12.324129379287918
98,130,33652736,11.966119256774174
99,131,33652736,11.897618795931592
100,133,33652736,12.251766623003197
101,135,33652736,12.211789279029581
102,136,33652736,12.083815000881525
103,137,33652736,11.958091451885654
104,138,33652736,12.074385081650652
105,139,33652736,12.328897245072689
106,141,33652736,11.791957032410703
107,143,33652736,11.488206343500508
108,144,33652736,11.921355912990034
109,145,33652736,11.779541317801238
110,146,33652736,12.012184683478788
111,147,33652736,12.025920989154324
112,149,33652736,11.771897710001102
113,151,33652736,11.811562456675446
114,152,33652736,12.002035722144612
115,153,33652736,11.872903579751025
116,154,33652736,11.99833855239425
117,155,33652736,11.26521550797807
118,157,33652736,11.839487196626813
119,159,33652736,11.936646213446771
120,160,33652736,12.025779173186802
121,161,33652736,11.85269338923546
122,162,33652736,12.066903658359049
123,163,33652736,11.996559245885942
124,165,33652736,11.964077267790453
125,167,33652736,12.11877086401792
126,168,33652736,12.152099415952225
127,169,33652736,11.702075810767955
128,170,33652736,12.202862163469522
129,171,33652736,12.249483306749445
130,173,33652736,12.330631929233423
131,175,33652736,12.328034602144575
132,176,33652736,12.20640310717475
133,177,33652736,11.717718221711845
134,178,33652736,12.220875916808929
135,179,33652736,12.166439264939282
136,181,33652736,12.23864916663939
137,183,33652736,11.994096461761902
138,184,33652736,12.158421650852972
139,185,33652736,12.279232962444292
140,186,33652736,12.161932451649859
141,187,33652736,12.327307546629333
142,189,33652736,12.233096979306845
143,191,33652736,12.326878578945498
144,192,33652736,12.199889357993595
145,193,33652736,11.91703303104657
146,194,33652736,11.196849565837114
147,195,33652736,12.295168190802574
148,197,33652736,12.323840536243061
149,199,33652736,12.186741468707064
150,200,33652736,12.22954053372426
151,201,33652736,11.783765007759495
152,202,33652736,11.111317434270262
153,203,33652736,12.326300648644017
154,205,33652736,12.330347299140684
155,207,33652736,11.95469308776518
156,208,33652736,11.280319805424437
157,209,33652736,11.672332750631261
158,210,33652736,12.232100966057498
159,211,33652736,11.897484196016418
160,213,33652736,12.324562669242956
161,215,33652736,12.324711619701676
162,216,33652736,12.147883859067125
163,217,33652736,12.326296133776873
164,218,33652736,12.176017980689284
165,219,33652736,12.043825223052119
166,221,33652736,11.891161433508724
167,223,33652736,12.32803008600712
168,224,33652736,12.230393892060013
169,225,33652736,11.632437933113216
170,226,33652736,12.126172566810139
171,227,33652736,12.016709903070707
172,229,33652736,12.24178339370667
173,231,33652736,12.074107826471325
174,232,33652736,12.239788699865501
175,233,33652736,11.897210799314436
176,234,33652736,12.197483861847996
177,235,33652736,12.156454028498336
178,237,33652736,12.060810212686654
179,239,33652736,12.326734091289536
180,240,33652736,12.230251657400537
181,241,33652736,12.312874524264087
182,242,33652736,12.213633008171037
183,243,33652736,11.561081520813065
184,245,33652736,12.151818580335226
185,247,33652736,12.293874604637026
186,248,33652736,12.17573603847871
187,249,33652736,12.16727944034342
188,250,33652736,11.171040113553602
189,251,33652736,11.770971262277191
190,253,33652736,12.03334736215786
191,255,33652736,12.053760055475024
192,256,33652736,12.172353750118459
193,257,33652736,12.12715140337392
194,258,33652736,12.224280787608311
195,259,33652736,11.985074897957077
196,261,33652736,12.064407585368013
197,263,33652736,11.948037894035734
198,264,33652736,12.22314857963306
199,265,33652736,12.034591003792823
200,266,33652736,11.167718526020826
201,267,33652736,11.856568674427125
202,269,33652736,11.752817653008197
203,271,33652736,12.031970619351199
204,272,33652736,12.220587455615457
205,273,33652736,12.257768844923966
206,274,33652736,12.181941784826119
207,275,33652736,12.047688499670997
208,277,33652736,12.16841012126923
209,279,33652736,12.18278851312557
210,280,33652736,12.228829492739246
211,281,33652736,12.240358546058198
212,282,33652736,12.199040251022424
213,283,33652736,12.168832530701657
214,285,33652736,12.321819013968474
215,287,33652736,12.325718258087248
216,288,33652736,12.22954053372426
217,289,33652736,12.090626699825464
218,290,33652736,12.098829151457476
219,291,33652736,12.300637497701814
220,293,33652736,12.204561560025967
221,295,33652736,12.23082061588896
222,296,33652736,12.207961773503948
223,297,33652736,12.191544936228732
224,298,33652736,12.177286882238384
225,299,33652736,12.327312062237425
226,301,33652736,12.326300648644017
227,303,33652736,12.292154736331888
228,304,33669120,11.184795456070542
229,305,33669120,12.02448387473496
230,306,33669120,11.225846461615404
231,307,33669120,11.622930808786572
232,309,33669120,12.327240215020222
233,311,33669120,12.326089415723699
234,312,33669120,11.2252476320343
235,313,33669120,12.151416306782378
236,314,33669120,10.993829645716458
237,315,33669120,12.327100302455708
238,317,33669120,11.78303254959712
239,319,33669120,12.098038715454381
240,320,33669120,11.252017696240385
241,321,33669120,11.99624176817895
242,322,33669120,11.065515016726883
243,323,33669120,12.281339390389007
244,325,33669120,12.165747557211583
245,327,33669120,11.23004005830301
246,328,33669120,11.110974709084177
247,329,33669120,12.069588895544603
248,330,33669120,11.25273973106352
249,331,33669120,12.13781885589325
250,333,33669120,11.953175839823967
251,335,33669120,11.596669220044197
252,336,33669120,11.009589743908354
253,337,33669120,12.099295153615113
254,338,33669120,11.097380659663742
255,339,33669120,12.074302472947764
256,341,33669120,12.046925198697167
257,343,33669120,12.0243507502291
258,344,33669120,11.111444063456023
259,345,33669120,11.953175839823967
260,346,33669120,11.117898038252248
261,347,33669120,12.009386613553376
262,349,33669120,11.949781920540214
263,350,33669120,11.149708368063248
264,352,33669120,12.155487441648885
265,353,33669120,12.326806947712031
266,354,33669120,11.233277260009622
267,355,33669120,12.328684659375941
268,357,33669120,12.116851681108662
269,359,33669120,12.327244728381633
270,360,33669120,12.21702532513667
271,361,33669120,12.131241339104982
272,362,33669120,11.746728745348896
273,363,33669120,12.325800621394738
274,365,33669120,11.833124335753206
275,367,33669120,12.019538776074102
276,368,33669120,11.189073701932168
277,369,33669120,11.948696273378554
278,370,33669120,12.05852279055908
279,371,33669120,11.933111866189709
280,372,33669120,12.203846903868
281,374,33669120,12.29842223957675
282,376,33669120,12.152258386793358
283,377,33669120,12.319590307115984
284,378,33669120,12.27761331836789
285,379,33669120,12.289659552567317
286,380,33669120,12.29641002641953
287,382,33669120,12.285354613422657
288,384,33669120,12.149031047052295
289,385,33669120,12.287076227115772
290,386,33669120,12.321177242955667
291,387,33669120,12.297564273528062
292,388,33669120,12.325800621394738
293,390,33669120,12.27417587345056
294,392,33669120,11.529947999157576
295,393,33669120,12.326378223585916
296,394,33669120,11.88203760920238
297,395,33669120,12.324207983308625
298,397,33669120,11.794792569822128
299,399,33669120,11.895605647716227
300,400,33669120,11.843651274676823
301,401,33669120,12.16982390343117
302,402,33669120,12.01432336038738
303,403,33669120,12.018577701403894
304,405,33669120,11.600500967307921
305,407,33669120,11.830463308090604
306,408,33669120,11.963913307509745
307,409,33669120,11.743188894496532
308,410,33669120,12.003906095412692
309,411,33669120,11.99514766316517
310,413,33669120,12.075272480785577
311,415,33669120,11.774329821341643
312,416,33669120,11.86501649234586
313,417,33669120,12.15647053811209
314,418,33669120,11.989543505874034
315,419,33669120,12.253163451355453
316,421,33669120,11.894126437126753
317,423,33669120,11.94462685280479
318,424,33669120,12.142577128297416
319,425,33669120,11.83685594763944
320,426,33669120,12.142717262764522
321,427,33669120,12.318152499567372
322,429,33669120,12.329840458607347
323,431,33669120,11.91851304610394
324,432,33669120,12.18999069524951
325,433,33669120,12.121872829697816
326,434,33669120,12.150854984940052
327,435,33669120,12.253734265713906
328,437,33669120,12.179971652880184
329,439,33669120,12.025445894258315
330,440,33669120,12.228952902590775
331,441,33669120,12.048304694452804
332,442,33669120,12.167576518240278
333,443,33669120,12.324785436239988
334,445,33669120,12.324641067934085
335,447,33669120,12.293392940990902
336,448,33669120,12.108480725362625
337,449,33669120,11.992413273565601
338,450,33669120,11.332123016153494
339,451,33669120,12.079981831117655
340,453,33669120,12.259302494088654
341,455,33669120,12.325656229304931
342,456,33669120,12.190838130259632
343,457,33669120,12.242328073879127
344,458,33669120,11.119546672602532
345,459,33669120,12.32926253190422
346,461,33669120,12.323053239763034
347,463,33669120,11.400395959948925
348,464,33669120,11.407066399873695
349,465,33669120,12.047757169264857
350,466,33669120,12.222986204037358
351,467,33669120,12.115735466315073
352,469,33669120,11.889825370026193
353,471,33669120,12.147488142630463
354,472,33669120,12.229095037843264
355,473,33669120,11.742009418265352
356,474,33669120,12.152398744808837
357,475,33669120,12.152679470566792
358,477,33669120,12.227527291123353
359,479,33669120,12.218444054611739
360,480,33669120,12.166169576337392
361,481,33669120,11.502972504546475
362,482,33669120,12.22980576366908
363,483,33669120,12.244892615267565
364,485,33669120,12.038792599471023
365,487,33669120,11.773539301639877
366,488,33669120,12.14076005235772
367,489,33669120,12.090670548805821
368,490,33669120,12.17701142940223
369,491,33669120,11.950596285386421
370,493,33669120,12.10444536319678
371,495,33669120,12.14188088312404
372,496,33669120,12.228100160454881
373,497,33669120,12.306189806100258
374,498,33669120,12.231938436901238
375,499,33669120,12.3289735888687
376,501,33669120,11.99296005174882
377,503,33669120,12.166169576337392
378,504,33669120,12.235494545668624
379,505,33669120,11.783824344680445
380,506,33669120,11.36026442069235
381,507,33669120,12.24218563085446
382,509,33669120,12.24347218964605
383,511,33669120,12.12871980844263
384,512,33669120,12.269170852760636
385,513,33669120,12.326522632592296
386,514,33669120,12.264303932474991
387,515,33669120,12.19196822690762
388,517,33669120,12.146366276447988
389,519,33669120,11.723165887655222
390,520,33767424,12.2153877876596
391,521,33767424,11.545393405870513
392,522,33767424,12.2035212573224
393,523,33767424,12.328709866568136
394,525,33767424,12.17648414249845
395,527,33767424,12.328277757535353
396,528,33767424,12.203102289096453
397,529,33767424,11.999385948453783
398,530,33767424,12.198024036672724
399,531,33767424,12.226856817182778
400,533,33767424,12.283789181437804
401,535,33767424,12.247860178759133
402,536,33767424,12.136571101399676
403,537,33767424,11.65557478931554
404,538,33767424,12.157405223870656
405,539,33767424,12.254972225508691
406,541,33767424,12.32654962426161
407,543,33767424,11.939647320393073
408,544,33783808,11.064342477799302
409,545,33783808,12.002755561840088
410,546,33783808,11.095272954658684
411,547,33783808,11.61696532221238
412,549,33783808,12.064758092797458
413,551,33783808,12.097106832841698
414,552,33783808,10.86238796410736
415,553,33783808,12.326626818227924
416,554,33783808,11.320611981339516
417,555,33783808,12.327778308912876
418,557,33783808,12.229813489216316
419,558,33783808,12.284601180905089
420,560,33783808,10.879293704922278
421,561,33783808,12.168215075792448
422,562,33783808,12.104731026145494
423,563,33783808,12.129908235272152
424,564,33783808,11.991031520648479
425,567,33783808,12.320872589987301
426,568,33783808,10.893771580328156
427,569,33783808,12.300922829330279
428,570,33783808,10.86261149159191
429,571,33783808,11.91887750800059
430,573,33783808,11.396011980317953
431,575,33783808,11.881587198311866
432,576,33783808,10.925110952725278
433,577,33783808,12.18098660639116
434,578,33783808,10.89928236734894
435,579,33783808,11.8354960398648
436,581,33783808,12.05043634213104
437,583,33783808,12.058414971879362
438,584,33783808,10.915961097289088
439,585,33783808,11.983137532681228
440,586,33783808,10.88714704144996
441,587,33783808,12.036697456901866
442,589,33783808,12.105980246327855
443,591,33783808,11.733552649858574
444,592,33783808,12.01231532435818
445,593,33783808,12.145257879687064
446,594,33783808,12.026957568991461
447,595,33783808,11.917532071938787
448,597,33783808,11.88626917711465
449,599,33783808,11.749353128077859
450,600,33783808,11.956267219702614
451,601,33783808,11.635273566866696
452,602,33783808,11.92102663121108
453,603,33783808,11.843200795347107
454,605,33783808,11.993619744285656
455,607,33783808,11.737466160439817
456,608,33783808,11.933018734635056
457,609,33783808,11.954371859367608
458,610,33783808,11.939770681872078
459,611,33783808,11.907849694618173
460,613,33783808,11.799384182085399
461,615,33783808,11.766634519302873
462,616,33783808,12.001527553332037
463,617,33783808,11.55605268117749
464,618,33783808,11.957350552620039
465,619,33783808,11.985854170805778
466,621,33783808,11.945715001992497
467,623,33783808,11.271541464788244
468,624,33783808,11.949906601030943
469,625,33783808,11.965210591240739
470,626,33783808,12.005894947822178
471,627,33783808,12.062410403495349
472,629,33783808,12.171441623655907
473,631,33783808,11.75903721813514
474,632,33783808,11.915111052329939
475,633,33783808,11.791740429452991
476,634,33783808,11.878107367674938
477,635,33783808,12.32677074279943
478,637,33783808,12.325475542635575
479,639,33783808,11.28588007581867
480,640,33783808,11.89617618722992
481,641,33783808,12.14176155017508
482,642,33783808,12.071099264489135
483,643,33783808,11.74373321023154
484,645,33783808,11.540262882014625
485,647,33783808,12.074412600291568
486,648,33783808,12.023259430771022
487,649,33783808,11.836955729590034
488,650,33783808,11.894299829315969
489,651,33783808,11.689506615175892
490,653,33783808,12.01723770568485
491,655,33783808,11.82250740485669
492,656,33783808,11.949365584259175
493,657,33783808,11.651449179644889
494,658,33783808,11.911611560224074
495,659,33783808,12.276316066789004
496,661,33783808,12.22089472332452
497,663,33783808,11.529546507842143
498,664,33783808,12.233918899491469
499,665,33783808,11.87610310867132
500,666,33783808,12.04823171651545
501,667,33783808,12.23761036334144
502,669,33783808,12.327490416073411
503,671,33783808,12.250674653970142
504,672,33783808,12.211706446027666
505,673,33783808,12.063237375109756
506,674,33783808,12.168631449809332
507,675,33783808,11.84798552590464
508,677,33783808,12.069581259889386
509,679,33783808,12.325187757338643
510,680,33783808,12.15854568801766
511,681,33783808,11.7721492169511
512,682,33783808,12.173261695265323
513,683,33783808,12.016417028665776
514,685,33783808,12.27860049908448
515,687,33783808,12.314405501418294
516,688,33783808,12.210435311865918
517,689,33783808,12.327922260375196
518,690,33783808,11.128722538327672
519,691,33783808,12.206482364018566
520,693,33783808,12.169196887514977
521,695,33783808,12.0082164192606
522,696,33783808,12.204365766024823
523,697,33783808,11.983545587498222
524,698,33783808,11.179043740275691
525,699,33783808,12.002205485292027
526,701,33783808,11.787264211507651
527,703,33783808,12.253660631445776
528,704,33783808,11.143526828859603
529,705,33783808,11.82568979790431
530,706,33783808,12.137996845482537
531,707,33783808,11.833642918566182
532,709,33783808,11.652349366901745
533,711,33783808,12.257217264982197
534,712,33783808,12.236045761564531
535,713,33783808,12.221597665351913
536,714,33783808,12.22768879298301
537,715,33783808,11.857029745225434
538,717,33783808,12.32849809984447
539,719,33783808,11.959920021297444
540,720,33783808,12.211137051129548
541,721,33783808,11.862096376920746
542,722,33783808,12.167649729320118
543,723,33783808,11.703895038495862
544,725,33783808,12.145113796379812
545,727,33783808,11.737857655083468
546,728,33783808,12.213260413902605
547,729,33783808,11.919281198059684
548,730,33783808,12.15406217587874
549,731,33783808,12.085608549836785
550,733,33783808,12.100568820227235
551,735,33783808,11.955184083066777
552,736,33783808,12.204224685590596
553,737,33783808,12.174669883088773
554,738,33783808,12.225564834872152
555,739,33783808,12.202673016061068
556,741,33783808,11.966973741864845
557,743,33783808,12.069719244530743
558,744,33783808,12.199288924453098
559,745,33783808,12.15056514619496
560,746,33783808,11.121102662410532
561,747,33783808,12.151404249778526
562,749,33783808,12.329361959921316
