idx,og Index,data (B),bandwidth (GB/s)
0,0,125952000,9.359566852514964
1,1,125952000,12.346114667363018
2,3,125952000,12.345648759666725
3,5,125952000,12.342900015081716
4,7,125952000,12.346037215334995
5,9,125952000,12.347662701523744
6,11,125952000,12.345843589516384
7,13,125952000,12.346385757114032
8,15,125952000,12.34654067088831
9,17,125952000,12.347430290084029
10,19,125952000,12.334893051466977
11,21,125952000,12.345727416940402
12,23,125952000,12.346694378240834
13,25,125952000,12.346269574334439
14,27,125952000,12.345145376848324
15,29,125952000,12.345495078347316
16,31,125952000,12.345997279512764
17,33,125952000,12.346731897939486
18,35,125952000,12.345841169232084
19,37,125952000,12.346694378240834
20,39,125952000,12.347351611110184
21,41,125952000,12.345958554113697
22,43,125952000,12.345726206820908
23,45,125952000,12.347120421773681
24,47,125952000,12.346731897939486
25,49,125952000,12.345726206820908
26,51,125952000,12.346848089420542
27,53,125952000,12.346228426791019
28,55,125952000,12.345376492227976
29,57,125952000,12.345996069340364
30,59,125952000,12.34545393596619
31,61,125952000,12.346267153883117
32,63,125952000,12.346654438167034
33,64,126074880,10.235749237666326
34,65,126074880,12.346655035060323
35,67,126074880,12.355639297507123
36,69,126074880,12.356064331764392
37,71,126074880,12.356608079185866
38,73,126074880,12.356180585542878
39,75,126074880,12.35540560167134
40,77,126074880,12.345997307820891
41,79,126074880,12.345031397975893
42,81,126074880,12.34665624418228
43,83,126074880,12.346927093468409
44,85,126074880,12.34545570270998
45,87,126074880,12.34696457801105
46,89,126074880,12.34630681779233
47,91,126074880,12.356219337288504
48,93,126074880,12.345494387213433
49,95,126074880,12.355988041411099
50,97,126074880,12.356375557728072
51,99,126074880,12.344643384136294
52,101,126074880,12.345959829151143
53,103,126074880,12.346035995718665
54,105,126074880,12.344683272284659
55,107,126074880,12.346461578597605
56,109,126074880,12.346422888032551
57,111,126074880,12.34715925945767
58,113,126074880,12.346113372241621
59,115,126074880,12.345727708265501
60,117,126074880,12.344179250088072
61,119,126074880,12.356840609394972
62,121,126074880,12.346578860854535
63,123,126074880,12.356141834040319
64,125,126074880,12.346809804595575
65,127,126074880,12.344372635033318
66,128,126197760,10.219678396722648
67,129,126197760,12.344336812698264
68,131,126197760,12.345457466013682
69,133,126197760,12.34619300533684
70,135,126197760,12.345689350724564
71,137,126197760,12.35493439090316
72,139,126197760,12.3562493280803
73,141,126197760,12.345729206786515
74,143,126197760,12.357139821658436
75,145,126197760,12.345959893897211
76,147,126197760,12.346230448927473
77,149,126197760,12.344724429459653
78,151,126197760,12.353656012901283
79,153,126197760,12.336304982332964
80,155,126197760,12.344684579884929
81,157,126197760,12.345225590013454
82,159,126197760,12.345726791260283
83,161,126197760,12.346037194124435
84,163,126197760,12.35663648343075
85,165,126197760,12.345612054853056
86,167,126197760,12.34688756051501
87,169,126197760,12.34669549309243
88,171,126197760,12.344916435562208
89,173,126197760,12.346539669196872
90,175,126197760,12.346424917680071
91,177,126197760,12.34480050663491
92,179,126197760,12.344491373473272
93,181,126197760,12.346230448927473
94,183,126197760,12.34700352864448
95,185,126197760,12.346732939731025
96,187,126197760,12.345109655279682
97,189,126197760,12.345843945371312
98,191,126197760,12.355397671700487
99,192,126320640,10.098337579991068
100,193,126320640,12.35647385663335
101,195,126320640,12.34623145704536
102,197,126320640,12.346385914870185
103,199,126320640,12.346424529930252
104,201,126320640,12.346424529930252
105,203,126320640,12.346385914870185
106,205,126320640,12.343529070563939
107,207,126320640,12.34692654769289
108,209,126320640,12.34627127783358
109,211,126320640,12.345922552989366
110,213,126320640,12.347042403743504
111,215,126320640,12.345420616865253
112,217,126320640,12.356085879448173
113,219,126320640,12.345921346363205
114,221,126320640,12.34549783515091
115,223,126320640,12.346965166134847
116,225,126320640,12.345692091672358
117,227,126320640,12.345111753382037
118,229,126320640,12.34545801935174
119,231,126320640,12.345999777554203
120,233,126320640,12.34657899258603
121,235,126320640,12.345922552989366
122,237,126320640,12.345304791247935
123,239,126320640,12.346347300051665
124,241,126320640,12.346347300051665
125,243,126320640,12.346965166134847
126,245,126320640,12.346077003085135
127,247,126320640,12.344917515122985
128,249,126320640,12.345536444655979
129,251,126320640,12.355737808503076
130,253,126320640,12.34657899258603
131,255,126320640,12.34561366439061
132,256,126443520,10.074553926166029
133,257,126443520,12.355381858028068
134,259,126443520,12.34549955409422
135,261,126443520,12.347312698414248
136,263,126443520,12.345036708961853
137,265,126443520,12.346811137130741
138,267,126443520,12.345769563116038
139,269,126443520,12.346001008821032
140,271,126443520,12.346849717321257
141,273,126443520,12.346425348485829
142,275,126443520,12.347389865305484
143,277,126443520,12.34615531077876
144,279,126443520,12.346809931503673
145,281,126443520,12.346348193649874
146,283,126443520,12.345422410828677
147,285,126443520,12.347196949885877
148,287,126443520,12.332706961621223
149,289,126443520,12.345229556882645
150,291,126443520,12.346618239794648
151,293,126443520,12.345923859288506
152,295,126443520,12.34495957148054
153,297,126443520,12.34472816482038
154,299,126443520,12.345151211688162
155,301,126443520,12.357004684468311
156,303,126443520,12.347157161830458
157,305,126443520,12.345961228472916
158,307,126443520,12.345846710720181
159,309,126443520,12.346656818779676
160,311,126443520,12.346849717321257
161,313,126443520,12.34549955409422
162,315,126443520,12.347118579718577
163,317,126443520,12.356193217963865
164,319,126443520,12.348470303068183
165,320,126566400,10.123993451092929
166,321,126566400,12.346464705782509
167,323,126566400,12.347775220197036
168,325,126566400,12.346580328217474
169,327,126566400,12.346579123805949
170,329,126566400,12.346387625362272
171,331,126566400,12.346039571074856
172,333,126566400,12.344846219045566
173,335,126566400,12.346194928522307
174,337,126566400,12.356223146635843
175,339,126566400,12.347004295673948
176,341,126566400,12.346233467409094
177,343,126566400,12.346695952818028
178,345,126566400,12.346156389876118
179,347,126566400,12.347813768950292
180,349,126566400,12.346310545904473
181,351,126566400,12.346310545904473
182,353,126566400,12.346424961070635
183,355,126566400,12.345923958767713
184,357,126566400,12.347197017779806
185,359,126566400,12.346850122320895
186,361,126566400,12.34542299712322
187,363,126566400,12.345769812393
188,365,126566400,12.346695952818028
189,367,126566400,12.346424961070635
190,370,127426560,12.347234577918696
191,372,127426560,12.345818192916004
192,374,127426560,12.346047854894996
193,376,127426560,12.346124410786791
194,378,127426560,12.345626814460362
195,380,127426560,12.346124410786791
196,382,127426560,12.355893070690552
197,384,127426560,12.344936705181816
198,386,127426560,12.345628010557284
199,388,127426560,12.345205802742448
200,390,127426560,12.345358894590188
201,392,127426560,12.345435441937926
202,393,127549440,10.125030184708987
203,394,127549440,12.347156917903776
204,396,127549440,12.346163752762411
205,398,127549440,12.345972547973098
206,400,127549440,12.346431449417402
207,402,127549440,12.355195360664315
208,404,127549440,12.333213465510894
209,406,127549440,12.346086075102477
210,408,127549440,12.34685094386306
211,410,127549440,12.346201994430972
212,412,127549440,12.345628394276288
213,414,127549440,12.356344393125482
214,416,127549440,12.346583229016911
215,418,127549440,12.347540602096023
216,420,127549440,12.347196360973395
217,422,127549440,12.346163752762411
218,424,127549440,12.346966877555014
219,426,127549440,12.345054847417646
220,428,127549440,12.355386851234
221,430,127549440,12.355233658303398
222,432,127549440,12.346965682351206
223,434,127549440,12.345360732443645
224,436,127549440,12.346584424146675
225,438,127549440,12.346354963474278
226,440,127549440,12.35707222423142
227,442,127549440,12.345169552526048
228,444,127549440,12.347043371079991
229,446,127549440,12.345590156161029
230,448,127549440,12.356497613601565
231,450,127549440,12.355117569315857
232,452,127549440,12.355386851234
233,454,127549440,12.357263772984199
234,456,127549440,12.347425852922393
235,457,127672320,10.084217920989097
236,458,127672320,12.34517037708023
237,459,127672320,10.167171963356163
238,460,127672320,12.347196428846017
239,461,127672320,10.435744706450869
240,462,127672320,12.344980580722783
241,463,127672320,10.43069737589436
242,464,127672320,12.356144314278389
243,465,127672320,10.187058019615096
244,466,127672320,12.345666978808037
245,467,127672320,10.254794935137411
246,468,127672320,12.346622094433357
247,469,127672320,10.286602401076742
248,470,127672320,12.34692895669234
249,471,127672320,10.26376520996523
250,472,127672320,12.347272851589869
251,473,127672320,10.281062404922839
252,474,127672320,12.346317635282654
253,475,127672320,10.273782021296688
254,476,127672320,12.356029515731223
255,477,127672320,10.241475271863031
256,478,127672320,12.345628777256684
257,479,127672320,10.274364072520708
258,480,127672320,12.354536133192388
259,481,127672320,10.218445211016224
260,482,127672320,12.356220847828265
261,483,127672320,10.270555479177826
262,484,127672320,12.345819787377652
263,485,127672320,10.250922642549428
264,486,127672320,12.345477167180753
265,487,127672320,10.26009639188211
266,488,127672320,12.347234640099689
267,489,127672320,10.250553926913682
268,490,127672320,12.346011997278067
269,491,127672320,10.294671243748985
270,492,127672320,12.345896193081009
271,493,127672320,10.296717836668812
272,494,127672320,12.345782778705066
273,495,127672320,10.286337193493146
274,496,127672320,12.34692895669234
275,497,127672320,10.308370257464773
276,498,127672320,12.345018778262757
277,499,127672320,10.282069233059518
278,500,127672320,12.355645673579973
279,501,127672320,10.25492672523336
280,502,127672320,12.346201825351852
281,503,127672320,10.287557261620792
282,504,127672320,12.34620301925758
283,505,127672320,10.26759519147185
284,506,127672320,12.356565260535675
285,507,127672320,10.302566524667004
286,508,127672320,12.354765676922797
287,509,127672320,10.26992098812107
288,510,127672320,12.356602333881387
289,511,127672320,10.31300662421127
290,512,127672320,12.346316441354757
291,513,127672320,10.218890140002735
292,514,127672320,12.35645045416655
293,515,127672320,10.295813582307877
294,516,127672320,12.34593559014134
295,517,127672320,10.25497944222022
296,518,127672320,12.345437773046108
297,519,127672320,10.327074432692593
298,520,127672320,12.346010803409282
299,521,126566400,12.356224352929656
300,522,126566400,10.310962110107948
301,523,126566400,12.355373974236599
302,524,126566400,10.339182540081913
303,525,126566400,12.35452491854684
304,526,126566400,10.371663909852378
305,527,126566400,12.346233467409094
306,528,126566400,10.235367585253082
307,529,126566400,12.346272006536482
308,530,126566400,11.803007544459772
309,531,126566400,12.355682750695118
310,532,126566400,10.30811361286325
311,533,126566400,12.347004295673948
312,534,126566400,10.456115039207623
313,535,126566400,12.346580328217474
314,536,126689280,10.181515537929677
315,537,126689280,12.345695470334789
316,538,126689280,10.339139410486977
317,539,126689280,12.34604196450237
318,540,126689280,10.261796779629153
319,541,126689280,12.347120070748066
320,542,126689280,10.27572667174143
321,543,126689280,12.345656972183379
322,544,126689280,10.27804671706662
323,545,126689280,12.3463499756463
324,546,126689280,10.297188012083598
325,547,126689280,12.347428135688569
326,548,126689280,10.285123360076105
327,549,126689280,12.345618474272069
328,550,126689280,10.303727035973623
329,551,126689280,12.3463499756463
330,552,126689280,10.25358359482049
331,553,126689280,12.345810966229644
332,554,126689280,10.30887833900234
333,555,126689280,12.34596376099427
334,556,126689280,10.224006190122564
335,557,126689280,12.345425988316945
336,558,126689280,10.267545271184602
337,559,126689280,12.34519501309364
338,560,126689280,10.28977466410627
339,561,126689280,12.347274101296758
340,562,126689280,10.25953557541915
341,563,126689280,12.34758097048503
342,564,126689280,10.275353294835213
343,565,126689280,12.346465483787535
344,566,126689280,10.316561191871296
345,567,126689280,12.34665800215924
346,568,126689280,10.303619771903938
347,569,126689280,12.345733968726302
348,570,126689280,10.285898285373474
349,571,126689280,12.345002540342925
350,572,126689280,10.309522614065152
351,573,126689280,12.346194764984865
352,574,126689280,10.289828151827038
353,575,126689280,12.356715804455153
354,576,126689280,10.266905399844307
355,577,126689280,12.345695470334789
356,578,126689280,10.329265660781205
357,579,126689280,12.347004550358502
358,580,126689280,10.31508283093598
359,581,126689280,12.34615626371945
360,582,126689280,10.264377481696142
361,583,126689280,12.346580994090097
362,584,126689280,10.269302207122198
363,585,126689280,12.346426980833645
364,586,126689280,10.292610279783643
365,587,126689280,12.3463884781199
366,588,126689280,10.33948959079497
367,589,126689280,12.34692753796636
368,590,126689280,11.846424802733791
369,591,126689280,12.355249226073674
370,592,126689280,11.563286971307935
371,593,126689280,12.357332907796742
372,594,126689280,10.304210590013554
373,595,126689280,12.347466644887025
374,596,126689280,10.321726179807138
375,597,126689280,12.347582173923637
376,598,126689280,10.374795188963363
377,599,126689280,12.345771264272047
378,600,126812160,10.255480939978355
379,601,126812160,12.346273934432773
380,602,126812160,10.254446813109523
381,603,126812160,12.347003602389442
382,604,126812160,10.300584973261255
383,605,126812160,12.346426592587422
384,606,126812160,10.29116831377198
385,607,126812160,12.356127520547156
386,608,126812160,10.259995558203913
387,609,126812160,12.355435295392274
388,610,126812160,10.275851803040535
389,611,126812160,12.346735526544592
390,612,126812160,10.302914835969032
391,613,126812160,12.346466260284895
392,614,126812160,10.295580672306773
393,615,126812160,12.347351036386724
394,616,126812160,10.281743846808274
395,617,126812160,12.345927762998052
396,618,126812160,10.289993381117709
397,619,126812160,12.345197020381056
398,620,126812160,10.234636402595862
399,621,126812160,12.346772791996788
400,622,126812160,10.292986773238106
401,623,126812160,12.347004804549494
402,624,126812160,10.274652893038075
403,625,126812160,12.34573545392221
404,626,126812160,10.257738167219882
405,627,126812160,12.348043558318171
406,628,126812160,10.246968666837217
407,629,126812160,12.347003602389442
408,630,126812160,10.295286453083772
409,631,126812160,12.34577391525809
410,632,126812160,10.266453693261626
411,633,126812160,12.34473434157817
412,634,126812160,10.283023626143816
413,635,126812160,12.346697059216988
414,636,126812160,10.311735003414011
415,637,126812160,12.346235469981371
416,638,126812160,10.251184088195705
417,639,126812160,12.346350864054592
418,640,126812160,10.276730348731878
419,641,126812160,12.344849707592378
420,642,126812160,10.251449272843402
421,643,126812160,12.356976354640057
422,644,126812160,10.333111480648297
423,645,126812160,12.345850838648778
424,646,126812160,10.284812516032996
425,647,126812160,12.34569699282597
426,648,126812160,10.426417680061684
427,649,126812160,12.346158541797573
428,650,126812160,11.827691903620643
429,651,126812160,12.355550861502685
430,652,126812160,10.930742800322236
431,653,126812160,12.345772713337714
432,654,126812160,10.26549629643781
433,655,126812160,12.345927762998052
434,656,126812160,10.313747794000854
435,657,126812160,12.346234267971127
436,658,126812160,10.41436065036866
437,659,126812160,12.35543409159
438,660,126812160,10.353277428819062
439,661,126812160,12.345043190852616
440,662,126812160,10.378222096226029
441,663,126812160,12.346735526544592
442,664,126935040,10.25931276729791
443,665,126935040,12.34719601963917
444,666,126935040,10.28031765430494
445,667,126935040,12.346082761864578
446,668,126935040,10.303817001475336
447,669,126935040,12.346159614633816
448,670,126935040,10.308369035191047
449,671,126935040,12.34546797415345
450,672,126935040,10.31533875396013
451,673,126935040,12.346428606861085
452,674,126935040,10.338944769029911
453,675,126935040,12.356466547166185
454,676,126935040,10.251993740983522
455,677,126935040,12.345889433347828
456,678,126935040,10.308288670322542
457,679,126935040,12.347081922500406
458,680,126935040,10.314641357997454
459,681,126935040,12.345775360355304
460,682,126935040,10.331297297504072
461,683,126935040,12.345044142502816
462,684,126935040,10.2556515340207
463,685,126935040,12.346467035278971
464,686,126935040,10.311021779005877
465,687,126935040,12.347234452834376
466,688,126935040,10.321861286295336
467,689,126935040,12.345660088735832
468,690,126935040,10.31482994736257
469,691,126935040,12.354157530130859
470,692,126935040,10.312603356528525
471,693,126935040,12.346581121053845
472,694,126935040,10.346901286019937
473,695,126935040,12.346005910052126
474,696,126935040,10.316921656198032
475,697,126935040,12.34554361855662
476,698,126935040,10.30170217649208
477,699,126935040,12.346657980027668
478,700,126935040,10.358681949434208
479,701,126935040,12.346273694727378
480,702,126935040,11.63564257399931
481,703,126935040,12.357428892357662
482,704,126935040,11.832124176722205
483,705,126935040,12.35496438537977
484,706,126935040,11.642404442153499
485,707,126935040,12.356197117371716
486,708,126935040,11.374327675159304
487,709,126935040,12.356659004213343
488,710,126935040,11.75522759487758
489,711,126935040,12.355311930768615
490,712,126935040,10.415966477231558
491,713,126935040,12.345621665341021
492,714,126935040,10.226172063880705
493,715,126935040,12.347849416499002
494,716,126935040,10.308986044722639
495,717,126935040,12.346926993971907
496,718,126935040,10.318988208627951
497,719,126935040,12.346657980027668
498,720,126935040,10.302238117611616
499,721,126935040,12.345813784706817
500,722,126935040,10.323983557433692
501,723,126935040,12.34581258394221
502,724,126935040,10.298841144431435
503,725,126935040,12.346388977805686
504,726,126935040,10.348952023713348
505,727,126935040,12.345658888001124
506,728,127057920,10.217447997396462
507,729,127057920,12.346812141042822
508,730,127057920,10.281902398337907
509,731,127057920,12.34627465517853
510,732,127057920,10.21195580319199
511,733,127057920,12.34627465517853
512,734,127057920,10.291203048047324
513,735,127057920,12.345737216108255
514,736,127057920,10.261918226695995
515,737,127057920,12.345852377684327
516,738,127057920,10.323794297834397
517,739,127057920,12.34654459200639
518,740,127057920,10.230505780620257
519,741,127057920,12.355149160286325
520,742,127057920,10.272458252599243
521,743,127057920,12.346159485724385
522,744,127057920,10.256934522939792
523,745,127057920,12.345584870240979
524,746,127057920,10.266243125358649
525,747,127057920,12.345967541408884
526,748,127057920,10.228424602009879
527,749,127057920,12.346696961560875
528,750,127057920,10.255503928327496
529,751,127057920,12.345661642491537
530,752,127057920,10.269562235972312
531,753,127057920,12.345968741042322
