idx,og Index,data (B),bandwidth (GB/s)
0,0,67239936,12.273967481621888
1,1,67239936,12.31562237452532
2,3,67239936,12.350368004214264
3,5,67239936,12.350002791793889
4,7,67239936,12.350510919302081
5,9,67239936,12.351456964481445
6,11,67239936,12.301560492121432
7,13,67239936,12.30386551079023
8,15,67239936,12.189448575578913
9,17,67239936,12.299832294809919
10,19,67239936,12.248708774648865
11,21,67239936,12.300482562073684
12,23,67239936,12.145273065699957
13,25,67239936,12.133210653777494
14,27,67239936,12.202402554449462
15,29,67239936,12.193978011647037
16,31,67239936,12.296809117642756
17,33,67239936,12.299256336939948
18,35,67239936,12.240645791163534
19,37,67239936,12.298752418049698
20,39,67239936,12.281787283041036
21,41,67239936,12.349279235945472
22,43,67239936,12.350510919302081
23,45,67239936,12.351892602359243
24,47,67239936,12.350873893122593
25,49,67239936,12.35203555273391
26,51,67239936,12.352326001781206
27,53,67239936,12.350513187822205
28,55,67239936,12.351454695614605
29,57,67239936,12.350293145250165
30,59,67239936,12.351672510632294
31,61,67239936,12.349639869171567
32,63,67239936,12.35029541369029
33,64,67371008,10.712154082260225
34,65,67371008,12.352949114752175
35,67,67371008,12.352441775527387
36,69,67371008,12.352951379752868
37,71,67371008,12.351209839460507
38,73,67371008,12.3525867253392
39,75,67371008,12.351789543469142
40,77,67371008,12.35200694650196
41,79,67371008,12.351862010296426
42,81,67371008,12.353166558606345
43,83,67371008,12.350994728768917
44,85,67371008,12.301558040135674
45,87,67371008,12.352296829117321
46,89,67371008,12.35048755006254
47,91,67371008,12.352806421382999
48,93,67371008,12.350123041094847
49,95,67371008,12.35548643612729
50,97,67371008,12.353456495653527
51,99,67371008,12.353456495653527
52,101,67371008,12.35135476036127
53,103,67371008,12.352369301897143
54,105,67371008,12.272659176029963
55,107,67371008,12.352081680562016
56,109,67371008,12.351067186270262
57,111,67371008,12.351572148089046
58,113,67371008,12.3525867253392
59,115,67371008,12.35200694650196
60,117,67371008,12.353311525428701
61,119,67371008,12.352659201520801
62,121,67371008,12.352876635168556
63,123,67371008,12.35128229948579
64,125,67371008,12.352224357187907
65,127,67371008,12.351499684662883
66,128,67502080,10.706248005527108
67,129,67502080,12.295604174620616
68,131,67502080,12.35248476756817
69,133,67502080,12.351182895803875
70,135,67502080,12.350604374211416
71,137,67502080,12.35508933461017
72,139,67502080,12.354221023564172
73,141,67502080,12.352270030235596
74,143,67502080,12.354657425057585
75,145,67502080,12.351833797382005
76,147,67502080,12.351833797382005
77,149,67502080,12.349736693431533
78,151,67502080,12.352195439014608
79,153,67502080,12.35248476756817
80,155,67502080,12.29789801694762
81,157,67502080,12.351040520228095
82,158,67502080,10.702011281950465
83,161,67502080,12.351689146658156
84,163,67502080,12.352848707886091
85,165,67502080,12.352270030235596
86,167,67502080,12.334716240830563
87,169,67502080,12.335942502755856
88,171,67502080,12.351980711741284
89,173,67502080,12.354003964872518
90,175,67502080,12.351833797382005
91,177,67502080,12.352340101597154
92,179,67502080,12.352340101597154
93,181,67502080,12.35248476756817
94,183,67502080,12.352195439014608
95,185,67502080,12.354221023564172
96,187,67502080,12.349594351195176
97,189,67502080,12.351761471596582
98,191,67502080,12.351836057576447
99,192,67633152,10.725240486014862
100,193,67633152,12.353899434483363
101,195,67633152,12.350289979986268
102,197,67633152,12.234755252079749
103,199,67633152,12.351156056696889
104,201,67633152,12.353393983850557
105,203,67633152,12.351444775927511
106,205,67633152,12.35245539954121
107,207,67633152,12.351011702143202
108,209,67633152,12.35238320665562
109,211,67633152,12.35158688488065
110,213,67633152,12.35245539954121
111,215,67633152,12.35346618855154
112,217,67633152,12.352166633061865
113,219,67633152,12.35195006706232
114,221,67633152,12.350867350963773
115,223,67633152,12.351300414624953
116,225,67633152,12.352311014613877
117,227,67633152,12.354260495974048
118,229,67633152,12.350073479786484
119,231,67633152,12.35245539954121
120,233,67633152,12.350937270644945
121,235,67633152,12.351228235239116
122,237,67633152,12.354260495974048
123,239,67633152,12.352311014613877
124,241,67633152,12.354116068845187
125,243,67633152,12.350578658727214
126,245,67633152,12.353393983850557
127,247,67633152,12.331338920800137
128,249,67633152,12.352094443551568
129,251,67633152,12.352527593270661
130,253,67633152,12.35238320665562
131,255,67633152,12.351228235239116
132,256,67764224,10.685781290703886
133,257,67764224,12.351707905420541
134,259,67764224,12.295836514761342
135,261,67764224,12.351777699358681
136,263,67764224,12.351777699358681
137,265,67764224,12.35278642240688
138,267,67764224,12.3520658891329
139,269,67764224,12.3528584803577
140,271,67764224,12.352498199010112
141,273,67764224,12.352498199010112
142,275,67764224,12.353362909553352
143,277,67764224,12.352570253598355
144,279,67764224,12.352137938677718
145,281,67764224,12.351993840428603
146,285,67764224,12.350408981555734
147,287,67764224,12.353074659254311
148,289,67764224,12.351417481051161
149,291,67764224,12.351129321532202
150,293,67764224,12.350841175458498
151,295,67764224,12.339470149666841
152,297,67764224,12.351705654016314
153,299,67764224,12.351777699358681
154,301,67764224,12.353290845717453
155,303,67764224,12.352642309027221
156,305,67764224,12.300048010034006
157,307,67764224,12.352642309027221
158,309,67764224,12.354155667243255
159,311,67764224,12.297190931205535
160,313,67764224,12.351487271707215
161,315,67764224,12.35278642240688
162,317,67764224,12.350553042829107
163,319,67764224,12.351633609514394
164,320,67895296,11.197648561777617
165,321,67895296,12.350743206074876
166,323,67895296,12.351534097689758
167,325,67895296,12.352253177969185
168,327,67895296,12.352972341980164
169,329,67895296,12.350527525939723
170,331,67895296,12.349952415738022
171,333,67895296,12.352828502478742
172,335,67895296,12.352325090602122
173,337,67895296,12.351821719754678
174,339,67895296,12.35433898433383
175,341,67895296,12.353475806615954
176,343,67895296,12.352325090602122
177,345,67895296,12.332508929427732
178,347,67895296,12.352828502478742
179,349,67895296,12.352397004072388
180,351,67895296,12.352325090602122
181,353,67895296,12.354770618429136
182,355,67895296,12.35232284331967
183,357,67895296,12.338174448796117
184,359,67895296,12.331073206426478
185,361,67895296,12.351459947297998
186,363,67895296,12.3510307913066
187,365,67895296,12.353475806615954
188,367,67895296,12.352109355215244
189,369,67895296,12.351246489019545
190,371,67895296,12.345928143538359
191,373,67895296,12.352179018943442
192,375,67895296,12.351246489019545
193,377,67895296,12.327349948145287
194,379,67895296,12.350383743367804
195,381,67895296,12.350961140529295
196,383,67895296,12.352828502478742
197,384,68026368,11.136511651397278
198,385,68026368,12.35208088203251
199,387,68026368,12.352655081946256
200,389,68026368,12.29748745826124
201,391,68026368,12.35179155933398
202,393,68026368,12.35322709196627
203,395,68026368,12.354378002039862
204,397,68026368,12.353157550664633
205,399,68026368,12.35358827067407
206,401,68026368,12.351076160623764
207,403,68026368,12.143640716125681
208,405,68026368,12.35301398400251
209,407,68026368,12.300478230806396
210,409,68026368,12.296420471460857
211,411,68026368,12.353370663581943
212,413,68026368,12.351504492843171
213,415,68026368,12.310521850668998
214,417,68026368,12.3532293352471
215,419,68026368,12.35035636030108
216,421,68026368,12.352655081946256
217,423,68026368,12.351004401063227
218,425,68026368,12.351719791460317
219,427,68026368,12.35322709196627
220,429,68026368,12.25262099951639
221,431,68026368,12.307027429148498
222,433,68026368,12.354232163362797
223,435,68026368,12.30360842521139
224,437,68026368,12.352655081946256
225,439,68026368,12.350358602539412
226,441,68026368,12.293933777285568
227,443,68026368,12.352006867959021
228,444,68026368,12.332160540200313
229,446,68026368,12.323722321548752
230,448,68157440,11.195210845307944
231,449,68157440,12.352267422135746
232,451,68157440,12.353270404686299
233,453,68157440,12.319115390670342
234,455,68157440,12.353124872562836
235,457,68157440,12.350691635716295
236,459,68157440,12.351479478666802
237,461,68157440,12.353485350710063
238,463,68157440,12.352840535077876
239,465,68157440,12.352480094560917
240,467,68157440,12.354273550130943
241,469,68157440,12.352124152209402
242,471,68157440,12.350548402341474
243,473,68157440,12.103015159702407
244,475,68157440,12.351763753496943
245,477,68157440,12.294156683151485
246,479,68157440,12.214137499151018
247,481,68157440,12.296427930321233
248,483,68157440,12.352695013082641
249,485,68157440,12.294014758061621
250,487,68157440,12.248062043364728
251,489,68157440,12.35140561412042
252,491,68157440,12.352912177935014
253,493,68157440,12.35427131078558
254,495,68157440,12.352697251856599
255,497,68157440,12.35205251849253
256,499,68157440,12.352121913643174
257,501,68157440,12.33245613273232
258,503,68157440,12.302465007684816
259,504,68157440,12.330811778176718
260,506,68157440,12.294726634091152
261,509,68157440,12.352121913643174
262,511,68157440,12.352695013082641
263,512,68288512,11.021397373851556
264,513,68288512,12.351450092561024
265,515,68288512,12.350451563616792
266,517,68288512,12.351809781240323
267,519,68288512,12.208918837257949
268,521,68288512,12.353023047238272
269,523,68288512,12.352379517358555
270,525,68288512,12.185355627779861
271,527,68288512,12.35259625430876
272,529,68288512,12.352882269347543
273,531,68288512,12.201170580333836
274,533,68288512,12.353952708783908
275,535,68288512,12.350523041307966
276,537,68288512,12.310267318349295
277,539,68288512,12.352379517358555
278,541,68288512,12.353096789318762
279,543,68288512,12.352167256583384
280,545,68288512,12.239029932240285
281,547,68288512,12.351235629777527
282,549,68288512,12.295372651175251
283,551,68288512,12.351450092561024
284,553,68288512,12.305298421251132
285,555,68288512,12.353380592812378
286,557,68288512,12.260053813275796
287,559,68288512,12.306859642334572
288,561,68288512,12.25449199097932
289,563,68288512,12.35473945477667
290,565,68288512,12.301538923807158
291,567,68288512,12.352808529828188
292,569,68288512,12.351023408312859
293,571,68288512,12.350951924829916
294,573,68288512,12.351664562792372
295,575,68288512,12.35123786372647
296,576,68419584,11.094061414321446
297,577,68419584,12.342439289964481
298,579,68419584,12.353563967096203
299,581,68419584,12.352564779594205
300,583,68419584,12.299272123859206
301,585,68419584,12.353064353140184
302,587,68419584,12.354349156397946
303,589,68419584,12.352564779594205
304,591,68419584,12.30380181155791
305,593,68419584,12.355279467213707
306,594,68419584,10.857170060306695
307,597,68419584,12.353278468458596
308,599,68419584,12.352350689015132
309,601,68419584,12.311169674392593
310,603,68419584,12.352065246453364
311,605,68419584,12.29877689160455
312,607,68419584,12.345218580442795
313,609,68419584,12.342368042561045
314,611,68419584,12.353635343817556
315,613,68419584,12.351066301367489
316,615,68419584,12.351565753712759
317,617,68419584,12.350424207700668
318,619,68419584,12.349924847669195
319,621,68419584,12.304297448578172
320,623,68419584,12.246996317286843
321,624,68419584,11.870113589107326
322,626,68419584,12.318969996769896
323,628,68419584,12.32586084735494
324,630,68419584,12.314856915863745
325,633,68419584,12.350283758610233
326,635,68419584,12.308334836954948
327,636,68419584,11.10252977595861
328,639,68419584,12.352279327137898
329,640,68550656,11.001431376038807
330,641,68550656,12.351752193248386
331,643,68550656,12.353461684361712
332,645,68550656,12.34982958118895
333,647,68550656,12.351965853763133
334,649,68550656,12.35353292342703
335,651,68550656,12.351040044913754
336,653,68550656,12.353319208695932
337,655,68550656,12.350399181620476
338,657,68550656,12.351111256051851
339,659,68550656,12.351894632770245
340,661,68550656,12.355385427561636
341,663,68550656,12.352678108867227
342,665,68550656,12.353461684361712
343,667,68550656,12.348975279047242
344,669,68550656,12.345130158387134
345,671,68550656,12.353677630307976
346,673,68550656,12.352963033909145
347,675,68550656,12.351752193248386
348,677,68550656,12.352037075577346
349,679,68550656,12.351467324059941
350,681,68550656,12.352179521669804
351,682,68550656,12.33297896972845
352,684,68550656,12.332481971451163
353,686,68550656,12.307468685826276
354,691,68550656,12.351823412598668
355,693,68550656,12.333689036759798
356,695,68550656,12.353390446118018
357,697,68550656,12.354102865529716
358,699,68550656,12.352678108867227
359,701,68550656,12.350755208572622
360,703,68550656,12.351609757011657
361,704,68681728,11.07462039178467
362,705,68681728,12.352719913079902
363,707,68681728,12.353004296284066
364,709,68681728,12.302730553514008
365,711,68681728,12.250624198904607
366,713,68681728,12.350445318736151
367,715,68681728,12.282873834023706
368,717,68681728,12.352435542969225
369,719,68681728,12.263783999985716
370,721,68681728,12.353430895642575
371,723,68681728,12.352151185951131
372,725,68681728,12.19099117648625
373,727,68681728,12.352222273978274
374,729,68681728,12.349803519353712
375,731,68681728,12.351298193443295
376,733,68681728,12.351866842024712
377,735,68681728,12.245244612575593
378,737,68681728,12.350871741366161
379,739,68681728,10.620223377820249
380,741,68681728,10.331383887748759
381,743,68681728,10.549386490581746
382,745,68681728,10.343532480480237
383,747,68681728,10.882025209918934
384,749,68681728,10.489579488103683
385,751,68681728,12.352148964463467
386,753,68681728,12.351866842024712
387,755,68681728,12.351795758088578
388,757,68681728,12.352151185951131
389,759,68681728,12.351013888786486
390,761,68681728,12.350871741366161
391,763,68681728,12.35328869258262
392,765,68681728,12.353644206371175
393,767,68681728,12.353004296284066
394,768,68812800,11.00017072670108
395,769,68812800,12.352617424075152
396,771,68812800,12.352262646417989
397,773,68812800,12.35112749484957
398,775,68812800,12.353187328346422
399,777,68812800,12.350489063773743
400,779,68812800,12.351555369279605
401,781,68812800,12.351555369279605
402,783,68812800,12.352335817641634
403,785,68812800,12.294705005193904
404,787,68812800,12.352830300451835
405,789,68812800,12.300051854379461
406,791,68812800,12.351768209052127
407,793,68812800,12.349214615807178
408,795,68812800,12.352617424075152
409,797,68812800,12.352335817641634
410,799,68812800,12.352832517952706
411,801,68812800,12.352477727940254
412,803,68812800,12.344323178846913
413,805,68812800,12.350491280434126
414,807,68812800,12.352406772383361
415,808,68812800,11.661055827426786
416,811,68812800,12.350633148353587
417,813,68812800,12.353400224366391
418,815,68812800,12.35304540174307
419,817,68812800,12.350633148353587
420,819,68812800,12.351981056160007
421,821,68812800,12.351768209052127
422,823,68812800,12.35269059950207
423,825,68812800,12.351555369279605
424,827,68812800,12.353187328346422
425,829,68812800,12.353468973606912
426,830,68812800,11.10286081054524
427,832,68943872,10.989700006328206
428,833,68943872,12.351599141277052
429,835,68943872,12.35216565520402
430,837,68943872,12.352236473098845
431,839,68943872,12.351174289932459
432,841,68943872,12.2988586822051
433,843,68943872,12.35110127155096
434,845,68943872,12.292541053961118
435,847,68943872,12.351811577909952
436,849,68943872,12.313971858063994
437,851,68943872,12.301876153793723
438,853,68943872,12.234325096774217
439,855,68943872,12.210747723719631
440,857,68943872,12.354004970711507
441,859,68943872,12.351599141277052
442,861,68943872,12.245868450453555
443,863,68943872,12.301524953706826
444,865,68943872,12.352092625100465
445,866,68943872,12.340774554014526
446,868,68943872,12.317560095204712
447,870,68943872,12.31706716622962
448,873,68943872,12.350395471704333
449,875,68943872,12.350961875220012
450,877,68943872,12.350395471704333
451,879,68943872,12.353794672254889
452,881,68943872,12.32799126539169
453,883,68943872,12.354148863254563
454,885,68943872,12.35485509217595
455,887,68943872,12.353582167403319
456,889,68943872,12.351950993421621
457,891,68943872,12.35124288374396
458,893,68943872,12.353228008896549
459,895,68943872,12.302721311188726
460,896,69074944,10.88856843622533
461,897,69074944,12.353690514897588
462,898,69074944,10.715649934364167
463,899,69074944,12.35029781987342
464,900,69074944,10.78438978024651
465,901,69074944,12.299560011039787
466,902,69074944,10.75183758120115
467,903,69074944,12.29836872666958
468,904,69074944,10.784175951681856
469,905,69074944,12.303558193695478
470,906,69074944,10.770186104912845
471,907,69074944,12.246733359632287
472,908,69074944,10.804686461275002
473,909,69074944,12.352912857662496
474,910,69074944,10.751732147090353
475,911,69074944,12.29794832845688
476,912,69074944,10.76411721155298
477,913,69074944,12.311698413317998
478,914,69074944,10.710811423510247
479,915,69074944,12.29836872666958
480,916,69074944,10.771044290819523
481,917,69074944,12.296409303160184
482,918,69074944,10.758267947826992
483,919,69074944,12.353195630783384
484,920,69074944,10.769109787168231
485,921,69074944,12.351781894624507
486,922,69074944,10.747824176501277
487,923,69074944,12.297179862267914
488,924,69074944,10.760574034834534
489,925,69074944,12.353407719120032
490,926,69074944,10.773680162671395
491,927,69074944,12.304257321016776
492,928,69074944,10.784391463969643
493,929,69074944,12.351499186221956
494,930,69074944,11.177186256167886
495,931,69074944,12.351923253678937
496,932,69074944,11.073686606800043
497,933,69074944,12.35029781987342
498,934,69074944,10.943881252415142
499,935,69074944,12.352983549729048
500,936,69074944,11.056103910654764
501,937,69074944,12.34507327072772
502,938,69074944,11.103477420660505
503,939,69074944,12.35185257374728
504,940,69074944,11.066987250403788
505,941,69074944,12.354329062359767
506,942,69074944,10.975993262649416
507,943,69074944,12.349873864016292
508,944,69074944,10.990691119721221
509,945,69074944,12.352915066777328
510,946,69074944,10.943659318658229
511,947,69074944,12.351711216310601
512,948,69074944,11.061032770628023
513,949,69074944,12.353339231465192
514,950,69074944,11.004641150429226
515,951,69074944,12.35270299535631
516,952,69074944,11.033666326964179
517,953,69074944,12.34916954337445
518,954,69074944,10.99152883816701
519,955,69074944,12.344012126181193
520,956,69074944,11.044676813227209
521,957,69074944,12.321183319735278
522,958,69074944,10.885985851910442
523,959,69074944,12.350085838306448
