idx,og Index,data (B),bandwidth (GB/s)
0,0,32768,6.058051395821779
1,1,32768,6.564102564102564
2,2,32768,5.953488372093023
3,3,32768,5.885057471264368
4,4,32768,5.91907514450867
5,5,32768,6.481012658227848
6,6,32768,5.446808510638298
7,7,32768,6.520995024875622
8,8,32768,5.851428571428571
9,9,32768,6.522292993630574
10,10,32768,5.953488372093023
11,11,32768,6.522292993630574
12,12,32768,5.224489795918367
13,13,32768,6.481012658227848
14,14,32768,5.277500402641327
15,15,32768,6.564102564102564
16,16,32768,5.91907514450867
17,17,32768,6.564102564102564
18,19,32768,6.522292993630574
19,20,32768,5.918006140509301
20,21,32768,6.520995024875622
21,22,32768,5.918006140509301
22,23,32768,6.56278790306429
23,24,32768,5.953488372093023
24,25,32768,6.564102564102564
25,26,32768,5.91907514450867
26,27,32768,6.522292993630574
27,28,32768,5.688888888888889
28,29,32768,6.481012658227848
29,30,32768,5.851428571428571
30,31,32768,6.564102564102564
31,32,32768,3.5310344827586206
32,33,32768,6.479731065849318
33,34,32768,5.91907514450867
34,35,32768,6.564102564102564
35,36,32768,5.953488372093023
36,37,32768,6.522292993630574
37,38,32768,5.988304093567251
38,39,32768,6.606451612903226
39,40,32768,5.885057471264368
40,41,32768,6.481012658227848
41,42,32768,5.91907514450867
42,43,32768,6.564102564102564
43,44,32768,6.206060606060606
44,45,32768,6.564102564102564
45,46,32768,6.206060606060606
46,47,32768,6.826666666666667
47,48,32768,6.245092433771679
48,49,32768,6.3602484472049685
49,50,32768,6.168674698795181
50,51,32768,6.826666666666667
51,52,32768,6.168674698795181
52,53,32768,6.7368421052631575
53,55,32768,6.87248322147651
54,56,32768,6.131736526946108
55,57,32768,6.781456953642384
56,59,32768,6.781456953642384
57,60,32768,6.282208588957055
58,61,32768,6.826666666666667
59,62,32768,7.366906474820144
60,63,32768,7.474452554744525
61,64,32768,6.206060606060606
62,65,32768,6.826666666666667
63,66,32768,6.87248322147651
64,67,32768,6.781456953642384
65,68,32768,2.4672840900534596
66,69,32768,6.826666666666667
67,70,32768,6.69281045751634
68,71,32768,6.781456953642384
69,72,32768,6.206060606060606
70,73,32768,6.87248322147651
71,75,32768,6.826666666666667
72,76,32768,6.4
73,77,32768,6.606451612903226
74,79,32768,6.826666666666667
75,80,32768,6.87248322147651
76,81,32768,6.87248322147651
77,82,32768,6.781456953642384
78,83,32768,6.781456953642384
79,84,32768,6.3602484472049685
80,85,32768,6.7368421052631575
81,86,32768,6.873924900356618
82,87,32768,6.781456953642384
83,88,32768,6.873924900356618
84,89,32768,6.826666666666667
85,90,32768,6.87248322147651
86,91,32768,6.781456953642384
87,92,32768,6.31976856316297
88,93,32768,6.282208588957055
89,94,32768,4.320675105485232
90,95,32768,6.64935064935065
91,96,32768,6.564102564102564
92,97,32768,6.69281045751634
93,98,32768,6.87248322147651
94,99,32768,6.7828606913682465
95,100,32768,3.1124620060790273
96,101,32768,6.826666666666667
97,102,32768,5.389473684210526
98,103,32768,6.7368421052631575
99,104,32768,6.4
100,105,32768,6.87248322147651
101,107,32768,6.871042147200671
102,108,32768,6.781456953642384
103,109,32768,6.87248322147651
104,110,32768,6.282208588957055
105,111,32768,6.826666666666667
106,112,32768,6.87248322147651
107,113,32768,6.826666666666667
108,114,32768,3.9536679536679538
109,115,32768,5.688888888888889
110,116,32768,6.826666666666667
111,117,32768,6.826666666666667
112,119,32768,6.781456953642384
113,120,32768,6.826666666666667
114,121,32768,6.206060606060606
115,123,32768,6.781456953642384
116,124,32768,6.3602484472049685
117,125,32768,6.781456953642384
118,126,32768,7.060547295841413
119,127,32768,7.474452554744525
120,128,32768,6.481012658227848
121,129,32768,6.206060606060606
122,130,32768,4.923076923076923
123,131,32768,6.7368421052631575
124,132,32768,6.69281045751634
125,133,32768,6.606451612903226
126,135,32768,6.7368421052631575
127,136,32768,6.564102564102564
128,137,32768,6.826666666666667
129,138,32768,6.69281045751634
130,139,32768,6.564102564102564
131,141,32768,6.826666666666667
132,142,32768,6.871042147200671
133,143,32768,6.481012658227848
134,144,32768,6.440251572327044
135,145,32768,6.87248322147651
136,147,32768,6.564102564102564
137,148,32768,6.826666666666667
138,149,32768,6.781456953642384
139,150,32768,6.282208588957055
140,151,32768,6.781456953642384
141,152,32768,4.231404958677686
142,153,32768,6.826666666666667
143,155,32768,6.781456953642384
144,156,32768,6.64935064935065
145,157,32768,6.87248322147651
146,159,32768,6.781456953642384
147,160,32768,6.826666666666667
148,161,32768,6.87248322147651
149,162,32768,6.87248322147651
150,163,32768,6.781456953642384
151,164,32768,6.7828606913682465
152,165,32768,6.826666666666667
153,166,32768,6.826666666666667
154,167,32768,6.206060606060606
155,168,32768,6.481012658227848
156,169,32768,6.87248322147651
157,170,32768,6.522292993630574
158,171,32768,6.780053796813573
159,172,32768,6.522292993630574
160,173,32768,6.481012658227848
161,174,32768,4.612612612612613
162,175,32768,6.826666666666667
163,176,32768,6.4415175938667195
164,177,32768,6.606451612903226
165,178,32768,5.333333333333333
166,179,32768,6.69281045751634
167,181,32768,6.826666666666667
168,183,32768,6.56278790306429
169,184,32768,6.691443741065958
170,185,32768,6.780053796813573
171,186,32768,6.871042147200671
172,187,32768,6.564102564102564
173,188,32768,6.781456953642384
174,189,32768,6.64935064935065
175,190,32768,7.314285714285714
176,191,32768,6.781456953642384
177,192,32768,6.918918918918919
178,193,32768,6.826666666666667
179,195,32768,6.7368421052631575
180,196,32768,6.826666666666667
181,197,32768,5.626373626373627
182,198,32768,6.826666666666667
183,199,32768,6.826666666666667
184,200,32768,6.242712897694799
185,201,32768,6.242712897694799
186,203,32768,6.826666666666667
187,205,32768,6.7828606913682465
188,207,32768,6.781456953642384
189,209,32768,6.826666666666667
190,210,32768,6.826666666666667
191,211,32768,6.3602484472049685
192,213,32768,6.781456953642384
193,215,32768,6.87248322147651
194,216,32768,6.781456953642384
195,217,32768,6.781456953642384
196,218,32768,6.826666666666667
197,219,32768,6.826666666666667
198,221,32768,6.606451612903226
199,222,32768,6.7368421052631575
200,223,32768,6.87248322147651
201,225,32768,6.781456953642384
202,227,32768,6.781456953642384
203,229,32768,6.69281045751634
204,230,32768,6.825244740679025
205,231,32768,6.87248322147651
206,232,32768,5.851428571428571
207,233,32768,6.781456953642384
208,235,32768,6.826666666666667
209,236,32768,6.781456953642384
210,237,32768,6.7368421052631575
211,238,32768,6.826666666666667
212,239,32768,6.826666666666667
213,241,32768,6.131736526946108
214,242,32768,6.282208588957055
215,243,32768,6.87248322147651
216,244,32768,6.64935064935065
217,245,32768,6.826666666666667
218,246,32768,6.826666666666667
219,247,32768,6.826666666666667
220,248,32768,6.7368421052631575
221,249,32768,6.826666666666667
222,250,32768,6.825244740679025
223,251,32768,6.871042147200671
224,252,32768,6.606451612903226
225,253,32768,6.282208588957055
226,254,32768,7.474452554744525
227,255,32768,6.965986394557823
228,256,32768,6.918918918918919
229,257,32768,6.918918918918919
230,258,32768,6.7368421052631575
231,259,32768,6.735457348406989
232,260,32768,6.826666666666667
233,261,32768,6.781456953642384
234,262,32768,6.87248322147651
235,263,32768,6.781456953642384
236,265,32768,6.87248322147651
237,266,32768,6.917458306945324
238,267,32768,6.648001623047271
239,268,32768,6.481012658227848
240,269,32768,6.826666666666667
241,270,32768,6.7828606913682465
242,271,32768,6.481012658227848
243,272,32768,6.606451612903226
244,273,32768,6.522292993630574
245,274,32768,4.432900432900433
246,275,32768,6.781456953642384
247,276,32768,6.7368421052631575
248,277,32768,6.826666666666667
249,278,32768,6.826666666666667
250,279,32768,6.781456953642384
251,280,32768,6.69281045751634
252,281,32768,6.781456953642384
253,283,32768,6.781456953642384
254,284,32768,6.64935064935065
255,285,32768,6.826666666666667
256,286,32768,6.826666666666667
257,287,32768,6.781456953642384
258,288,32768,6.64935064935065
259,289,32768,6.7368421052631575
260,290,32768,6.826666666666667
261,291,32768,6.826666666666667
262,292,32768,6.781456953642384
263,293,32768,6.826666666666667
264,294,32768,4.2845188284518825
265,295,32768,6.781456953642384
266,296,32768,6.64935064935065
267,297,32768,6.873924900356618
268,299,32768,6.781456953642384
269,300,32768,6.826666666666667
270,301,32768,6.826666666666667
271,303,32768,6.781456953642384
272,304,32768,6.64935064935065
273,305,32768,6.606451612903226
274,307,32768,6.781456953642384
275,308,32768,6.69281045751634
276,309,32768,6.64935064935065
277,311,32768,6.826666666666667
278,312,32768,6.781456953642384
279,313,32768,6.606451612903226
280,314,32768,6.871042147200671
281,315,32768,6.781456953642384
282,316,32768,6.7368421052631575
283,317,32768,6.359014166504949
284,318,32768,6.87248322147651
285,319,32768,7.111111111111111
286,320,32768,6.522292993630574
287,321,32768,6.826666666666667
288,323,32768,6.826666666666667
289,325,32768,6.781456953642384
290,326,32768,6.826666666666667
291,327,32768,6.826666666666667
292,328,32768,6.826666666666667
293,329,32768,6.826666666666667
294,330,32768,6.781456953642384
295,331,32768,6.64935064935065
296,333,32768,6.781456953642384
297,334,32768,6.606451612903226
298,335,32768,6.87248322147651
299,336,32768,6.87248322147651
300,337,32768,6.7368421052631575
301,338,32768,4.591928251121076
302,339,32768,6.826666666666667
303,340,32768,6.7368421052631575
304,341,32768,6.781456953642384
305,343,32768,6.2439024390243905
306,345,32768,6.7828606913682465
307,346,32768,7.529411764705882
308,347,32768,6.606451612903226
309,348,32768,6.781456953642384
310,349,32768,6.781456953642384
311,350,32768,6.826666666666667
312,351,32768,6.2439024390243905
313,352,32768,6.2439024390243905
314,353,32768,6.781456953642384
315,354,32768,6.168674698795181
316,355,32768,6.87248322147651
317,356,32768,5.885057471264368
318,357,32768,6.781456953642384
319,359,32768,6.871042147200671
320,360,32768,6.7368421052631575
321,361,32768,6.7368421052631575
322,362,32768,6.7368421052631575
323,363,32768,6.87248322147651
324,365,32768,6.206060606060606
325,366,32768,6.173323285606632
326,367,32768,6.876810073452256
327,368,32768,6.785669910954649
328,369,32768,6.209588781504642
329,371,32768,6.740999794281012
330,373,32768,6.785669910954649
331,374,32768,6.785669910954649
332,375,32768,6.830936001667709
333,376,32768,3.4733941064235743
334,377,32768,6.785669910954649
335,378,32768,6.830936001667709
336,379,32768,6.785669910954649
337,380,32768,6.74238683127572
338,381,32768,6.785669910954649
339,382,32768,7.479570874229628
340,383,32768,7.319186955550592
341,384,32768,6.172160482200038
342,385,32768,6.876810073452256
343,386,32768,6.876810073452256
344,387,32768,6.785669910954649
345,388,32768,6.830936001667709
346,389,32768,6.876810073452256
347,390,32768,6.830936001667709
348,391,32768,6.830936001667709
349,393,32768,6.785669910954649
350,394,32768,5.599453178400547
351,395,32768,6.830936001667709
352,396,32768,6.486144101346001
353,397,32768,6.830936001667709
354,398,32768,6.830936001667709
355,399,32768,6.785669910954649
356,400,32768,6.830936001667709
357,401,32768,6.876810073452256
358,402,32768,6.787075393537696
359,403,32768,6.785669910954649
360,405,32768,6.8295122967903295
361,407,32768,6.740999794281012
362,408,32768,6.652050345107592
363,409,32768,6.696913958716534
364,410,32768,6.1363295880149815
365,411,32768,6.740999794281012
366,412,32768,3.337883263726189
367,413,32768,6.610449868872302
368,414,32768,6.830936001667709
369,415,32768,6.785669910954649
370,416,32768,6.696913958716534
371,417,32768,6.830936001667709
372,419,32768,6.740999794281012
373,421,32768,6.830936001667709
374,423,32768,6.740999794281012
375,424,32768,5.822316986496091
376,425,32768,6.324647751399343
377,426,32768,6.248665141113654
378,427,32768,6.740999794281012
379,429,32768,6.876810073452256
380,430,32768,5.45043246839654
381,431,32768,6.740999794281012
382,432,32768,6.876810073452256
383,433,32768,6.784265010351967
384,435,32768,6.740999794281012
385,437,32768,6.876810073452256
386,438,32768,6.830936001667709
387,439,32768,6.740999794281012
388,440,32768,6.653401015228426
389,441,32768,6.696913958716534
390,443,32768,6.74238683127572
391,445,32768,6.653401015228426
392,446,32768,7.370220422852002
393,447,32768,7.319186955550592
394,449,32768,6.875367184221569
395,450,32768,6.24747378455672
396,451,32768,6.876810073452256
397,453,32768,6.830936001667709
398,455,32768,6.830936001667709
399,457,32768,6.830936001667709
400,459,32768,6.830936001667709
401,461,32768,6.830936001667709
402,462,32768,6.740999794281012
403,463,32768,6.785669910954649
404,465,32768,6.484860478923411
405,466,32768,6.739613327848622
406,467,32768,6.830936001667709
407,468,32768,6.785669910954649
408,469,32768,6.740999794281012
409,471,32768,6.785669910954649
410,473,32768,6.785669910954649
411,474,32768,6.830936001667709
412,475,32768,6.653401015228426
413,476,32768,6.785669910954649
414,477,32768,6.830936001667709
415,478,32768,6.830936001667709
416,479,32768,6.875367184221569
417,480,32768,6.696913958716534
418,481,32768,6.785669910954649
419,482,32768,6.830936001667709
420,483,32768,6.876810073452256
421,485,32768,6.740999794281012
422,487,32768,6.787075393537696
423,488,32768,6.785669910954649
424,489,32768,6.739613327848622
425,491,32768,6.830936001667709
426,492,32768,6.785669910954649
427,493,32768,6.172160482200038
428,494,32768,6.740999794281012
429,495,32768,6.830936001667709
430,496,32768,6.787075393537696
431,497,32768,6.363954165857448
432,498,32768,6.740999794281012
433,499,32768,6.740999794281012
434,500,32768,6.830936001667709
435,501,32768,6.785669910954649
436,503,32768,6.878253568429891
437,505,32768,6.568049709360594
438,506,32768,6.785669910954649
439,507,32768,6.830936001667709
440,508,32768,6.24747378455672
441,509,32768,6.830936001667709
442,510,32768,7.479570874229628
443,511,32768,7.4253342397462045
444,512,32768,6.876810073452256
445,513,32768,6.878253568429891
446,514,32768,3.533318956221695
447,515,32768,6.830936001667709
448,516,32768,4.1150320231068696
449,517,32768,6.830936001667709
450,519,32768,6.830936001667709
451,521,32768,6.830936001667709
452,522,32768,3.941303824873707
453,523,32768,6.830936001667709
454,525,32768,6.785669910954649
455,527,32768,6.653401015228426
456,528,32768,6.878253568429891
457,529,32768,6.830936001667709
458,530,32768,6.830936001667709
459,531,32768,6.785669910954649
460,532,32768,6.785669910954649
461,533,32768,6.830936001667709
462,534,32768,3.6080158555384276
463,535,32768,6.785669910954649
464,536,32768,6.696913958716534
465,537,32768,6.740999794281012
466,538,32768,6.876810073452256
467,539,32768,6.785669910954649
468,541,32768,6.285823901784002
469,543,32768,6.785669910954649
470,544,32768,6.875367184221569
471,545,32768,6.876810073452256
472,547,32768,6.785669910954649
473,548,32768,6.026853043958065
474,549,32768,6.24747378455672
475,550,32768,6.785669910954649
476,551,32768,6.785669910954649
477,552,32768,6.696913958716534
478,553,32768,6.785669910954649
479,554,32768,6.74238683127572
480,555,32768,6.740999794281012
481,556,32768,6.24747378455672
482,557,32768,6.830936001667709
483,558,32768,3.659184812953657
484,559,32768,6.698282910874898
485,561,32768,6.40375219855384
486,562,32768,6.830936001667709
487,563,32768,6.062534690101757
488,564,32768,6.876810073452256
489,565,32768,6.830936001667709
490,567,32768,6.785669910954649
491,568,32768,5.692842251563586
492,569,32768,6.876810073452256
493,570,32768,6.830936001667709
494,571,32768,6.784265010351967
495,573,32768,6.830936001667709
496,574,32768,7.319186955550592
497,575,32768,7.267243291195387
498,577,32768,6.876810073452256
499,578,32768,6.569366479550922
500,579,32768,6.830936001667709
501,580,32768,6.24747378455672
502,581,32768,6.285823901784002
503,582,32768,6.610449868872302
504,583,32768,6.830936001667709
505,584,32768,5.923355025307303
506,585,32768,6.784265010351967
507,587,32768,6.876810073452256
508,589,32768,6.785669910954649
509,590,32768,6.785669910954649
510,591,32768,6.696913958716534
511,592,32768,6.785669910954649
512,593,32768,6.830936001667709
513,594,32768,6.8295122967903295
514,595,32768,6.785669910954649
515,596,32768,6.568049709360594
516,597,32768,6.830936001667709
517,599,32768,6.830936001667709
518,600,32768,6.740999794281012
519,601,32768,6.830936001667709
520,603,32768,6.830936001667709
521,604,32768,6.785669910954649
522,605,32768,6.696913958716534
523,606,32768,6.784265010351967
524,607,32768,6.876810073452256
525,608,32768,6.24747378455672
526,609,32768,6.830936001667709
527,611,32768,6.484860478923411
528,613,32768,6.876810073452256
529,614,32768,6.787075393537696
530,615,32768,6.830936001667709
531,616,32768,6.696913958716534
532,617,32768,6.610449868872302
533,619,32768,6.830936001667709
534,620,32768,6.1363295880149815
535,621,32768,6.8295122967903295
536,622,32768,6.610449868872302
537,623,32768,6.785669910954649
538,624,32768,6.74238683127572
539,625,32768,6.740999794281012
540,626,32768,6.785669910954649
541,627,32768,6.830936001667709
542,628,32768,6.785669910954649
543,629,32768,6.785669910954649
544,631,32768,6.876810073452256
545,632,32768,6.830936001667709
546,633,32768,6.785669910954649
547,634,32768,6.610449868872302
548,635,32768,6.830936001667709
549,636,32768,6.830936001667709
550,637,32768,6.784265010351967
551,638,32768,7.479570874229628
552,639,32768,7.371878515185601
553,641,32768,6.923304458060427
554,643,32768,6.696913958716534
555,644,32768,6.696913958716534
556,645,32768,6.610449868872302
557,646,32768,6.653401015228426
558,647,32768,6.74238683127572
559,648,32768,6.696913958716534
560,649,32768,6.830936001667709
561,650,32768,6.830936001667709
562,651,32768,6.785669910954649
563,652,32768,6.698282910874898
564,653,32768,6.830936001667709
565,655,32768,6.21076573161486
566,656,32768,6.740999794281012
567,657,32768,6.830936001667709
568,658,32768,6.830936001667709
569,659,32768,6.785669910954649
570,661,32768,6.878253568429891
571,662,32768,6.876810073452256
572,663,32768,6.785669910954649
573,664,32768,6.876810073452256
574,665,32768,6.653401015228426
575,667,32768,6.785669910954649
576,668,32768,6.653401015228426
577,669,32768,6.785669910954649
578,670,32768,6.832360300250208
579,671,32768,6.787075393537696
580,672,32768,6.363954165857448
581,673,32768,6.8295122967903295
582,675,32768,6.785669910954649
583,676,32768,6.696913958716534
584,677,32768,6.830936001667709
585,678,32768,6.876810073452256
586,679,32768,6.830936001667709
587,680,32768,6.785669910954649
588,681,32768,6.830936001667709
589,682,32768,6.21076573161486
590,683,32768,6.830936001667709
591,684,32768,6.696913958716534
592,685,32768,6.830936001667709
593,687,32768,6.832360300250208
594,689,32768,6.830936001667709
595,690,32768,6.785669910954649
596,691,32768,6.610449868872302
597,692,32768,6.878253568429891
598,693,32768,6.526190001991635
599,694,32768,6.830936001667709
600,695,32768,6.24747378455672
601,696,32768,6.654752233956133
602,697,32768,6.832360300250208
603,698,32768,6.830936001667709
604,699,32768,6.696913958716534
605,700,32768,6.739613327848622
606,701,32768,6.287029930928626
607,702,32768,7.371878515185601
608,703,32768,7.265631929046563
609,704,32768,6.830936001667709
610,705,32768,6.923304458060427
611,706,32768,6.830936001667709
