idx,og Index,data (B),bandwidth (GB/s)
0,0,16785408,11.207561531589398
1,1,16785408,11.852327193951188
2,2,16785408,11.586587358398225
3,3,16785408,11.622529363743437
4,4,16785408,11.322725239855833
5,6,16785408,11.438276715750911
6,8,16785408,11.122255698982158
7,10,16785408,11.330551784796976
8,12,16785408,11.44576435186227
9,14,16785408,11.546036163631248
10,16,16785408,11.21019625547807
11,18,16785408,11.18534299218811
12,20,16785408,12.021829995330329
13,22,16785408,11.596833799337162
14,24,16785408,12.255235636497446
15,26,16785408,12.152454757912478
16,28,16785408,11.81149356699139
17,30,16785408,11.966703643606934
18,32,16793600,12.224373626053662
19,33,16793600,10.623764042313876
20,34,16793600,11.835647332440622
21,35,16793600,11.697143068090083
22,36,16793600,10.90795245957648
23,38,16793600,11.151321337552972
24,40,16793600,11.072511048709265
25,42,16793600,11.320920067439074
26,44,16793600,11.387738191060066
27,50,16793600,11.435380796900375
28,52,16793600,11.84820614704712
29,54,16793600,12.2672354599775
30,56,16793600,11.330941683461518
31,58,16793600,11.219271364656382
32,60,16793600,11.461604348879508
33,62,16793600,11.354476484233913
34,64,16793600,11.320668227896398
35,65,16793600,9.311269044089027
36,66,16793600,10.73524156786587
37,67,16793600,9.49301008621016
38,68,16793600,11.697664521045361
39,70,16793600,11.221190474122292
40,75,16793600,9.3374500492349
41,76,16793600,11.345148944938169
42,78,16793600,11.364803730158998
43,80,16793600,11.990589512089764
44,82,16793600,11.506839928877072
45,86,16793600,10.985816354432831
46,90,16793600,11.007707020480828
47,92,16793600,11.460603153003447
48,94,16793600,10.92702326195745
49,96,16793600,11.516435347260273
50,97,16793600,11.220710635207304
51,98,16793600,11.027135778700849
52,99,16793600,10.354818521224677
53,101,16793600,11.461854675181701
54,104,16793600,11.297767235156442
55,112,16793600,11.069708393179779
56,118,16793600,11.340973399334139
57,122,16793600,11.473138525358467
58,128,16793600,11.01579401010953
59,129,16793600,10.501309724729566
60,130,16793600,11.082097505511815
61,131,16793600,10.437608106151151
62,133,16793600,10.423297499937933
63,134,16793600,10.915666440903589
64,136,16793600,12.135612229265487
65,138,16793600,10.93568279643413
66,142,16793600,11.170317138404418
67,145,16793600,10.916574685476332
68,146,16793600,12.135892862820821
69,148,16793600,11.290224989680297
70,150,16793600,11.251744517541656
71,153,16793600,11.51997453664165
72,154,16793600,11.943389517104047
73,160,16793600,11.131696394541004
74,161,16793600,11.639815577236043
75,162,16793600,11.187693111217405
76,163,16793600,10.671940275364731
77,165,16793600,11.939042180786172
78,166,16793600,11.146828481176916
79,168,16793600,11.24282578292943
80,170,16793600,11.997176731466585
81,172,16793600,11.200116312183502
82,177,16793600,12.116848043718086
83,186,16793600,11.268898535223025
84,192,16793600,10.957602711213248
85,193,16793600,11.811938543258018
86,194,16793600,11.178406802789011
87,195,16793600,10.720555434264973
88,197,16793600,11.459351904103261
89,199,16793600,10.87202248776755
90,201,16793600,10.887133894061527
91,202,16793600,11.774307084383842
92,204,16793600,11.210882973191106
93,206,16793600,11.058271644609738
94,208,16793600,11.030155985122006
95,210,16793600,11.150617933175704
96,212,16793600,11.5394790275933
97,214,16793600,11.044308500913475
98,218,16793600,11.166989502354273
99,221,16793600,9.41467196705403
100,222,16793600,11.731667174301212
101,224,16793600,12.083360915001453
102,225,16793600,11.862132098448011
103,226,16793600,12.078911102735765
104,227,16793600,9.52903519766949
105,230,16793600,11.360867326885389
106,241,16793600,11.349319896384472
107,242,16793600,11.268649004827235
108,245,16793600,12.20333859439537
109,251,16793600,10.159959344674878
110,256,16793600,10.388228620703094
111,257,16793600,11.90896100810898
112,258,16793600,11.932518628573215
113,259,16793600,11.987585265640481
114,262,16793600,10.894139962608481
115,264,16793600,12.230641275501137
116,266,16793600,11.226944238315852
117,268,16793600,12.063917152520164
118,270,16793600,11.07343828095843
119,272,16793600,11.051983863219064
120,276,16793600,12.117678637915658
121,278,16793600,11.897899787173143
122,280,16793600,12.012830013762793
123,285,16793600,11.766379191355702
124,288,16793600,10.973182560104338
125,289,16793600,11.510625683275473
126,290,16793600,10.967685896385097
127,291,16793600,10.537788919182633
128,294,16793600,12.308386891556234
129,296,16793600,11.999645589735822
130,298,16793600,12.063917152520164
131,300,16793600,12.208448558127092
132,302,16793600,12.102597068469873
133,305,16793600,9.470739207842955
134,306,16793600,11.038740367822166
135,308,16793600,11.182448584415049
136,316,16793600,11.09755694621581
137,318,16793600,11.10624660237579
138,320,16793600,10.990647844553957
139,321,16793600,11.118482119566584
140,322,16793600,10.975706993797669
141,323,16793600,10.906146072063846
142,326,16793600,11.290718383521101
143,328,16793600,12.157822341272714
144,338,16793600,11.44360174717719
145,342,16793600,10.965852511843389
146,344,16793600,11.363573311138854
147,346,16793600,11.926290163594476
148,348,16793600,10.722964957021558
149,352,16793600,11.24474543041604
150,353,16793600,11.361359228161472
151,354,16793600,10.966303639457692
152,355,16793600,11.225263259213905
153,358,16793600,11.116605336547787
154,361,16793600,11.406301258771087
155,363,16793600,9.53093883175398
156,365,16793600,11.912754058264218
157,370,16793600,11.339510770225951
158,372,16793600,11.379342822895019
159,374,16793600,11.471625937121095
160,376,16793600,12.211014024022692
161,379,16793600,10.679969143477107
162,380,16793600,11.714906761240133
163,382,16793600,10.89504462831793
164,384,16793600,10.673676690611085
165,385,16793600,10.432835700356653
166,386,16793600,10.810880405408016
167,387,16793600,10.119406294741205
168,390,16793600,11.311403748061005
169,392,16793600,10.992719784355849
170,394,16793600,11.290718383521101
171,400,16793600,11.007014402399395
172,402,16793600,11.96899419282556
173,408,16793600,11.194382544506297
174,412,16793600,11.159620800423165
175,416,16793600,11.113772962327158
176,417,16793600,9.424139593271967
177,418,16793600,10.882167309693616
178,419,16793600,10.742713121019923
179,420,16793600,12.068078403417143
180,422,16793600,11.207762998952209
181,424,16793600,11.037340144039602
182,426,16793600,11.479655834536992
183,428,16793600,11.404070495865467
184,430,16793600,11.065273755753005
185,432,16793600,12.027972829341103
186,434,16793600,11.32482883213377
187,442,16793600,11.946388646036592
188,444,16793600,12.199367134584149
189,446,16793600,11.285126582703791
190,448,16793600,11.281010250150974
191,449,16793600,9.145436267414265
192,450,16793600,10.68041064021664
193,451,16793600,9.270805156090425
194,452,16793600,10.811103114140518
195,454,16793600,11.236085863029427
196,456,16793600,11.421692482954448
197,458,16793600,11.322874112450672
198,460,16793600,11.32360705325
199,462,16793600,11.151565698788996
200,464,16793600,11.387491091656095
201,466,16793600,11.324584455265342
202,470,16793600,11.306529787564944
203,472,16793600,11.191987748100303
204,474,16793600,11.400602154041458
205,476,16793600,11.329963183826521
206,478,16793600,11.196054286889558
207,480,16793600,11.930356995700594
208,481,16793600,9.893719806763285
209,482,16793600,10.627851786222827
210,483,16793600,9.762670875516296
211,484,16793600,10.727780400413687
212,486,16793600,10.874725923700266
213,488,16793600,12.2272306636019
214,496,16793600,12.130282656619736
215,498,16793600,11.382551354531474
216,500,16793600,11.16556397946083
217,502,16793600,10.941610775860385
218,504,16793600,12.111534935982732
219,505,16793600,11.952910361713334
220,506,16785408,12.051660410629616
221,507,16785408,11.915598299699296
222,508,16785408,11.52700660151451
223,509,16785408,12.164582033381672
224,510,16785408,11.367876117881705
225,511,16785408,12.085814759240005
226,512,16785408,11.464526400554053
227,513,16785408,11.19416757031447
228,514,16785408,11.79131461005662
229,515,16785408,11.818412759210181
230,516,16785408,12.158651882028087
231,517,16785408,9.954010446564542
232,518,16785408,10.976788107035633
233,519,16785408,9.557533128844486
234,520,16785408,12.032309028922716
235,521,16785408,10.813173391156798
236,522,16785408,11.94000904815153
237,523,16785408,9.23382208779977
238,524,16785408,11.163917711588843
239,525,16785408,9.350191678448123
240,526,16785408,11.442019308832942
241,527,16785408,11.222675605364556
242,528,16785408,11.315641767017375
243,529,16785408,11.957701327603845
244,530,16785408,11.492910994241017
245,531,16785408,12.248662604067318
246,532,16785408,11.618675814637307
247,533,16785408,12.12997291508286
248,534,16785408,11.513849551907096
249,535,16785408,9.60232303637696
250,536,16785408,11.58122321238833
251,537,16785408,10.459768725397396
252,538,16785408,11.35065678030572
253,539,16785408,11.556210976791066
254,540,16785408,11.412395252939717
255,541,16785408,11.347702458778116
256,542,16785408,11.440272460658619
257,543,16785408,10.862218517804287
258,544,16785408,11.248660044738891
259,545,16785408,10.933993764811179
260,546,16785408,11.250107572140358
261,547,16785408,10.321256598587587
262,548,16785408,11.906132165139748
263,549,16785408,9.986035952425146
264,550,16785408,11.179621547206029
265,551,16785408,11.989131832246231
266,552,16785408,11.73643892165829
267,553,16785408,11.689100466020607
268,554,16785408,11.950890403351437
269,555,16785408,11.384406489055705
270,556,16785408,12.02320777259821
271,557,16785408,9.476380195439592
272,558,16785408,10.866944187281096
273,559,16785408,10.298156438599387
274,560,16785408,11.419095447303363
275,561,16785408,11.641367218817708
276,562,16785408,11.524474064899373
277,563,16785408,11.196803468690069
278,564,16785408,11.023841391892796
279,565,16785408,11.014350789194978
280,566,16785408,11.918847297608194
281,567,16785408,9.583901492334492
282,568,16785408,11.882667089528782
283,569,16785408,10.538997108674291
284,570,16785408,11.205414249789548
285,571,16785408,11.800059754584407
286,572,16785408,12.03727916055913
287,573,16785408,12.26957766925356
288,574,16785408,11.881321332204571
289,575,16785408,12.312778791286418
290,576,16785408,12.201074046398572
291,577,16785408,12.221266160839166
292,578,16785408,12.19653491677348
293,579,16785408,9.661039015605207
294,580,16785408,11.168196198846946
295,581,16785408,9.311187465122032
296,582,16785408,12.224114237524388
297,583,16785408,10.360601906403172
298,584,16785408,11.874597115360126
299,585,16785408,10.381106289183316
300,586,16785408,11.336666148869062
301,587,16785408,9.805522971880418
302,588,16785408,11.209477571572627
303,589,16785408,8.884726845620177
304,590,16785408,10.916017964655984
305,591,16785408,10.88679179200604
306,592,16785408,12.014386851705915
307,593,16785408,10.98690439956407
308,594,16785408,12.06607606510994
309,595,16785408,12.096963617023116
310,596,16785408,11.435284403632224
311,597,16785408,12.1637269594103
312,598,16785408,11.460276105034616
313,599,16785408,11.852854466585084
314,600,16785408,11.575848064566628
315,601,16785408,11.306373379442368
316,602,16785408,11.258800566112404
317,603,16785408,11.352867772233935
318,604,16785408,12.216142965790537
319,605,16785408,11.00741679224719
320,606,16785408,11.153947311588594
321,607,16785408,11.078789830861979
322,608,16785408,11.350165565712716
323,609,16785408,11.706570793914265
324,610,16785408,11.372065844591642
325,611,16785408,11.524474064899373
326,612,16785408,12.01549628484302
327,613,16785408,11.892904816562513
328,614,16785408,11.485110089476994
329,615,16785408,12.081360968040054
330,616,16785408,11.515113347533932
331,617,16785408,12.209594027227787
332,618,16785408,12.068574583919311
333,619,16785408,11.687529635888513
334,620,16785408,11.998456000297363
335,621,16785408,9.354866000444742
336,622,16785408,10.821210992045943
337,623,16785408,11.34402896864096
338,624,16785408,12.224968919400194
339,625,16785408,11.645494375123581
340,626,16785408,11.284725149501327
341,627,16785408,10.419047181587443
342,628,16785408,11.13736210509274
343,629,16785408,10.134206598756755
344,630,16785408,10.987127340230694
345,631,16785408,10.810728928768786
346,632,16785408,11.121305080096628
347,633,16785408,12.103104260823669
348,634,16785408,11.552393321041363
349,635,16785408,12.271578005421734
350,636,16785408,12.29978654508603
351,637,16785408,12.149921391159328
352,638,16785408,11.589147270765196
353,639,16785408,10.34915479332713
354,640,16785408,11.892095933618425
355,641,16785408,10.59776508448016
356,642,16785408,12.076919147405341
357,643,16785408,11.239982696807079
358,644,16785408,12.08999317185884
359,645,16785408,10.153829960601557
360,646,16785408,11.23589723336562
361,647,16785408,11.850720557129181
362,648,16785408,11.180336407712346
363,649,16785408,10.598621612832956
364,650,16785408,11.075522206261658
365,651,16785408,10.818302692425439
366,652,16785408,11.775696843334073
367,653,16785408,10.816078933226109
368,654,16785408,11.183904630297151
369,655,16785408,12.171347524313099
370,656,16785408,11.99077622047919
371,657,16785408,11.561305111164224
372,658,16785408,11.086055685849226
373,659,16785408,11.353105812297175
374,660,16785408,11.879437783974295
375,661,16785408,11.795291835902914
376,662,16785408,11.826131557495724
377,663,16785408,10.158746144037048
378,664,16785408,11.608896548814622
379,665,16785408,9.701600248299444
380,666,16785408,11.100366432143922
381,667,16785408,9.688698178846078
382,668,16785408,11.199664785533468
383,669,16785408,9.645228557916797
384,670,16785408,11.48963835727834
385,671,16785408,10.270733251952677
386,672,16785408,11.33618380042318
387,673,16785408,12.171912390466328
388,674,16785408,12.065520979191884
389,675,16785408,12.073027634585632
390,676,16785408,11.665955212438934
391,677,16785408,11.897490565877252
392,678,16785408,11.710760661172708
393,679,16785408,12.160906949044973
394,680,16785408,12.12885100626913
395,681,16785408,12.182371879545144
396,682,16785408,11.596064687680698
397,683,16785408,9.77190591487209
398,684,16785408,12.063856027828487
399,685,16785408,9.795268973823896
400,686,16785408,12.036450520168541
401,687,16785408,10.747152570002056
402,688,16785408,12.117083481319138
403,689,16785408,10.483600449937574
404,690,16785408,11.161779697026724
405,691,16785408,11.376998890456091
406,692,16785408,11.28933971914877
407,693,16785408,10.041666068428835
408,694,16785408,11.278409006919405
409,695,16785408,11.35483382163231
410,696,16785408,11.650158107924275
411,697,16785408,11.182243149418717
412,698,16785408,11.591708314543736
413,699,16785408,12.159779310984321
414,700,16785408,12.140360419264407
415,701,16785408,12.238660101625438
416,702,16785408,11.646787237068981
417,703,16785408,11.109064736774181
418,704,16785408,11.844565815656887
419,705,16785408,10.186952278763103
420,706,16785408,11.039618012851289
421,707,16785408,11.900459700358175
422,708,16785408,11.806973858581426
423,709,16785408,11.881859598553683
424,710,16785408,12.04501864295371
425,711,16785408,10.739678067020105
426,712,16785408,11.442768121366063
427,713,16785408,10.029378163793062
428,714,16785408,11.89695088241548
429,715,16785408,10.33345625240477
430,716,16785408,10.957061894634597
431,717,16785408,10.79337790758238
432,718,16785408,11.364920521967921
433,719,16785408,11.903700446776824
434,720,16785408,12.190024684472313
435,721,16785408,11.403959391069867
436,722,16785408,11.619962728413078
437,723,16785408,10.969664729186245
438,724,16785408,11.263152102873661
439,725,16785408,10.689769849149585
440,726,16785408,11.527513242411153
441,727,16785408,11.104118843268031
442,728,16785408,11.218595213382052
443,729,16785408,11.105529406938786
444,730,16785408,11.309786281566069
445,731,16785408,11.270661874261819
446,732,16785408,12.071074137678096
447,733,16785408,11.956883606823627
448,734,16785408,12.03424137011365
449,735,16785408,10.808278611783281
450,736,16785408,11.857953855065912
451,737,16785408,10.982756477280608
452,738,16785408,12.133901230926709
453,739,16785408,10.972418292279553
454,740,16785408,12.026515726875402
455,741,16785408,10.802046450566635
456,742,16785408,11.286181974418609
457,743,16785408,11.72856627789004
458,744,16785408,11.356800552095562
459,745,16785408,11.325169873418917
460,746,16785408,12.038384191909484
461,747,16785408,10.749141562465178
462,748,16785408,11.608896548814622
463,749,16785408,11.61841846608764
464,750,16785408,11.879168754405482
465,751,16785408,12.025412873219336
466,752,16785408,12.095289977258382
467,753,16785408,10.702426844617419
468,754,16785408,11.9218271025515
469,755,16785408,10.920563210209714
470,756,16785408,12.003123525121207
471,757,16785408,11.659480590927151
472,758,16785408,11.908835239930415
473,759,16785408,10.457057953182675
474,760,16785408,11.63413761841788
475,761,16785408,9.33223102450784
476,762,16785408,11.305642311238755
477,763,16785408,8.689268742170272
478,764,16785408,10.796925604333332
479,765,16785408,10.171156066036678
480,766,16785408,10.741877392625433
481,767,16785408,11.42332302072005
482,768,16785408,12.005596038142322
483,769,16785408,11.9905021244496
484,770,16785408,11.471044943397903
485,771,16785408,12.16035191355167
486,772,16785408,12.141765500719012
487,773,16785408,11.825873268610238
488,774,16785408,11.19083154157708
489,775,16785408,12.041700503608476
490,776,16785408,12.18351255520917
491,777,16785408,11.916951833540168
492,778,16785408,11.453511881407687
493,779,16785408,9.869537122022379
494,780,16785408,10.67454216961712
495,781,16785408,10.052635361418941
496,782,16785408,11.508544638149573
497,783,16785408,11.159872507290142
498,784,16785408,11.083237481231256
499,785,16785408,12.052491146642618
500,786,16785408,12.214996172218163
501,787,16785408,11.974079263125155
502,788,16785408,11.305878375010609
503,789,16785408,11.61970532285174
504,790,16785408,11.991872729922585
505,791,16785408,11.2464969872717
506,792,16785408,11.181758954182882
507,793,16785408,11.793965795871333
508,794,16785408,11.987761853205086
509,795,16785408,12.105059409624966
510,796,16785408,12.05803231488479
511,797,16785408,10.184387231509735
512,798,16785408,10.838875651382189
513,799,16785408,9.980335916206458
514,800,16785408,11.691184705780744
515,801,16785408,10.590276362585593
516,802,16785408,11.968068813475211
517,803,16785408,11.588123170091011
518,804,16785408,12.1637269594103
519,805,16785408,11.861967787961085
520,806,16785408,11.955793486405558
521,807,16785408,12.145420235073471
522,808,16785408,12.12885100626913
523,809,16785408,10.766571522036138
524,810,16785408,12.047785156283645
525,811,16785408,10.299767808316684
526,812,16785408,11.36073605763276
527,813,16785408,11.561305111164224
528,814,16785408,11.033116291543259
529,815,16785408,11.834144112894355
530,816,16785408,12.145139023550216
531,817,16785408,11.756422100275605
532,818,16785408,12.152454757912478
533,819,16785408,12.078857152726005
534,820,16785408,11.471797559987124
535,821,16785408,11.078087896567427
536,822,16785408,11.48234457141489
537,823,16785408,10.327962841157516
538,824,16785408,10.996110020006734
539,825,16785408,11.527766579560947
540,826,16785408,12.1823807211707
541,827,16785408,10.902631507157174
542,828,16785408,12.128859770377398
543,829,16785408,10.552141778110544
544,830,16785408,11.70709334270715
545,831,16785408,9.815982147451942
546,832,16785408,11.334958972970309
547,833,16785408,10.025544358595777
548,834,16785408,11.12272738417172
549,835,16785408,10.968288465836098
550,836,16785408,11.357784172837118
551,837,16785408,12.007519808170494
552,838,16785408,11.607355226225554
553,839,16785408,11.539939871396564
554,840,16785408,11.280114350765732
555,841,16785408,11.951707304569236
556,842,16785408,12.092789097806925
557,843,16785408,11.392063416653658
558,844,16785408,11.7076241040764
559,845,16785408,9.60355365758628
560,846,16785408,11.286910527940224
561,847,16785408,10.093256173062214
562,848,16785408,11.599141746566469
