idx,og Index,data (B),bandwidth (GB/s)
0,0,9240576,11.445464645751509
1,2,9240576,11.260659487428208
2,4,9240576,11.666981470352058
3,6,9240576,11.322473095486364
4,8,9240576,11.669353565687167
5,10,9240576,11.646277708599055
6,12,9240576,11.654738541482734
7,14,9240576,11.642521280295128
8,16,9240576,11.835800038681697
9,18,9240576,11.201241272304111
10,20,9240576,11.720491316722729
11,22,9240576,11.453636116864429
12,24,9306112,11.436405575825798
13,25,9306112,10.793699691479738
14,26,9306112,11.305253976410619
15,28,9306112,11.690214305454363
16,30,9306112,11.08249127975868
17,32,9306112,11.316251746483019
18,34,9306112,11.404576972002383
19,36,9306112,11.999927789827135
20,38,9306112,11.504280984910856
21,40,9306112,11.188659985933189
22,42,9306112,11.486106002670926
23,44,9306112,11.687865162894678
24,46,9306112,11.198569449909687
25,48,9306112,11.68129258361074
26,50,9306112,11.913897331247423
27,52,9306112,11.218887431525346
28,54,9306112,11.166749262338653
29,56,9306112,11.833408568118847
30,58,9306112,11.423377994365714
31,60,9306112,11.486106002670926
32,62,9306112,11.327270934689441
33,64,9306112,11.75875262186955
34,66,9306112,11.435955854251688
35,68,9306112,11.761620874919586
36,70,9306112,11.364009031506477
37,72,9306112,11.808902632924692
38,74,9306112,11.629427370688846
39,76,9306112,11.86624180268817
40,78,9306112,11.701032535168057
41,80,9306112,11.483838166951722
42,82,9306112,11.441804994940634
43,84,9306112,11.691139539470626
44,86,9306112,11.521600574463607
45,88,9371648,11.585755364732586
46,89,9371648,10.929354208577509
47,90,9371648,11.531469099374679
48,91,9371648,10.342235803445996
49,92,9371648,11.681428548279941
50,93,9371648,10.409888654883456
51,94,9371648,11.662356377266262
52,95,9371648,12.21652160197307
53,96,9371648,11.70383635993521
54,97,9371648,10.559282140148976
55,98,9371648,11.211808492438445
56,99,9371648,10.757900271023864
57,100,9371648,11.391067910185615
58,101,9371648,10.157129278493757
59,102,9371648,11.402585267092354
60,103,9371648,10.605946886790958
61,104,9371648,11.467787546728829
62,105,9371648,10.781663121346584
63,106,9371648,11.554216362430372
64,107,9371648,11.218250571886525
65,108,9371648,12.08342154699908
66,109,9371648,11.005748523527844
67,110,9371648,11.22771235753676
68,111,9371648,10.737378065686991
69,112,9371648,11.875668284869612
70,113,9371648,10.602491203855596
71,114,9371648,11.78958597776601
72,115,9371648,10.872940073602777
73,116,9371648,11.272237404256957
74,117,9371648,10.669702689840632
75,118,9371648,11.47947470733712
76,119,9371648,10.346254861719075
77,120,9371648,11.89109821690269
78,121,9371648,10.747635534586507
79,122,9371648,11.22685153572374
80,123,9371648,10.85641470003568
81,124,9371648,11.88675449733705
82,125,9371648,10.605934883994644
83,126,9371648,11.308363580199243
84,127,9371648,10.952652424878835
85,128,9371648,11.843955210676642
86,129,9371648,10.991291783313766
87,130,9371648,11.24797974039379
88,131,9371648,10.99706991944332
89,132,9371648,11.637794200008196
90,133,9371648,10.562709709559657
91,134,9371648,11.48307555074149
92,135,9371648,11.185686748425985
93,136,9371648,11.881449814456307
94,137,9371648,10.878998518766165
95,138,9371648,11.28787820389285
96,139,9371648,10.698155035467794
97,140,9371648,11.773944834257788
98,141,9371648,10.761853469312292
99,142,9371648,11.578412343851733
100,143,9371648,10.645269310893978
101,144,9371648,11.518769711823284
102,145,9371648,10.51568041992489
103,146,9371648,11.431097363137596
104,147,9371648,10.87738227333293
105,148,9371648,11.917227347579779
106,149,9371648,10.528533825252579
107,150,9371648,11.701498202631313
108,151,9371648,10.770560740682
109,152,8781824,11.616783956823113
110,153,8781824,10.437045479665656
111,154,8781824,11.551733255110054
112,155,8781824,10.144938519192825
113,156,8781824,11.42667691991407
114,157,8781824,10.474891127892372
115,158,8781824,11.443353483177985
116,159,8781824,10.281011357104306
117,160,8781824,11.746075311748049
118,161,8781824,10.613450903043663
119,162,8781824,11.528939767893714
120,163,8781824,10.250661835771348
121,164,8781824,11.493210206154265
122,165,8781824,10.836005577286132
123,166,8847360,10.733765642913903
124,167,8847360,10.581738721703344
125,168,8847360,11.545601770592864
126,169,8847360,10.743763114945208
127,170,8847360,11.785809913425046
128,171,8847360,10.171378512328285
129,172,8847360,10.653514180024661
130,173,8847360,10.855989447529065
131,174,8847360,11.62085021705294
132,175,8847360,10.510124804881004
133,176,8847360,11.425368787942574
134,177,8847360,10.602027329037732
135,178,8847360,11.857601985702301
136,179,8847360,10.626068178460718
137,180,8847360,11.866762880956276
138,181,8847360,10.666653806599866
139,182,8847360,11.641875888204643
140,183,8847360,10.210821160364652
141,184,8847360,11.164650120387055
142,185,8847360,10.716279069767442
143,186,8847360,11.22631777294754
144,187,8847360,10.752537626881344
145,188,8847360,11.639915378219364
146,189,8847360,10.649820885173915
147,190,8847360,11.622285189578596
148,191,8847360,10.495362868307359
149,192,8847360,11.82868556790622
150,193,8847360,11.06899606151444
151,194,8847360,11.74525502773902
152,195,8847360,10.475876980057924
153,196,8847360,11.07341549714446
154,197,8847360,10.617103797857226
155,198,8847360,11.644327454593315
156,199,8847360,10.621590472531695
157,200,8847360,11.420162795560683
158,201,8847360,10.841090804379393
159,202,8847360,11.798383472533569
160,203,8847360,10.456858791464658
161,204,8847360,11.703971806838746
162,205,8847360,10.882067151934388
163,206,8847360,11.787317325332442
164,207,8847360,10.430808953129882
165,208,8847360,11.452804250064077
166,209,8847360,10.953200403099009
167,210,8847360,11.466593742426225
168,211,8847360,10.50533260189651
169,212,8847360,11.723326442995706
170,213,8847360,10.854297989699448
171,214,8847360,11.635016990878581
172,215,8847360,10.568390724276208
173,216,8847360,11.596935398247489
174,217,8847360,10.74501573976915
175,218,8847360,11.514827323663198
176,219,8847360,10.47468631680641
177,220,8847360,11.68124066707244
178,221,8847360,11.083181233393756
179,222,8847360,11.795379097950859
180,223,8847360,10.370945186386916
181,224,8847360,11.581390417172276
182,225,8847360,10.435927287653977
183,226,8847360,11.877978771678745
184,227,8847360,10.331030246839338
185,228,8847360,11.226303528014496
186,229,8847360,10.891069120453007
187,230,8912896,11.853390218212382
188,231,8912896,9.874690892975847
189,232,8912896,11.512840848909155
190,233,8912896,10.033711773678789
191,234,8912896,11.789170714157223
192,235,8912896,10.94974581747508
193,236,8912896,10.751486142206439
194,237,8912896,10.973040452863266
195,238,8912896,11.308557326921735
196,239,8912896,10.764783180026281
197,240,8912896,11.126030321376632
198,241,8912896,10.973905120722984
199,242,8912896,11.532384991809622
200,243,8912896,10.18452569357395
201,244,8912896,11.762286341705465
202,245,8912896,10.481579699390478
203,246,8912896,11.278777479132817
204,247,8912896,10.34684448324379
205,248,8912896,11.20029958292126
206,249,8912896,10.92825132451265
207,250,8912896,11.88224534796601
208,251,8912896,10.670740423697868
209,252,8912896,11.53716192601529
210,253,8912896,10.758130552336809
211,254,8912896,11.674513949196344
212,255,8912896,11.140270554370229
213,256,8912896,11.51188917045751
214,257,8912896,10.761858648889811
215,258,8912896,11.301674412117139
216,259,8912896,10.470559211685623
217,260,8912896,11.457416298695874
218,261,8912896,10.763119251874178
219,262,8912896,11.817196588313129
220,263,8912896,10.606133374903166
221,264,8912896,11.36114273040266
222,265,8912896,10.888094298617991
223,266,8912896,11.266003650465409
224,267,8912896,10.987758362653267
225,268,8912896,11.353732839587321
226,269,8912896,10.747337552091372
227,270,8912896,11.515220733582254
228,271,8912896,10.462680557593544
229,272,8912896,11.514759554080468
230,273,8912896,10.630421273971802
231,274,8912896,11.650113456933422
232,275,8912896,10.527946099310885
233,276,8912896,11.573130494963882
234,277,8912896,10.725816389402341
235,278,8912896,11.585164888728867
236,279,8912896,10.79190736747279
237,280,8912896,11.076034452548214
238,281,8912896,10.814534574032438
239,282,8912896,11.677955619844239
240,283,8912896,10.550278053319003
241,284,8912896,11.519998345588473
242,285,8912896,10.724577413268646
243,286,8912896,11.432036755331293
244,287,8912896,10.048190842319464
245,288,8912896,11.687741038703882
246,289,8912896,10.969583143592079
247,290,8912896,11.27879175182066
248,291,8912896,10.542291487766162
249,292,8912896,11.528089131936271
250,293,8912896,10.658898125193586
251,294,8978432,11.154814366630099
252,295,8978432,10.42719720716002
253,296,8978432,11.64999785903636
254,297,8978432,11.523190299321579
255,298,8978432,11.820305248842448
256,299,8978432,11.274040942714604
257,300,8978432,11.504748139121565
258,301,8978432,11.210988187698224
259,302,8978432,11.003007360312157
260,303,8978432,10.553884166761684
261,304,8978432,11.541202088576842
262,305,8978432,10.783089930822443
263,306,8978432,11.753458908727223
264,307,8978432,10.814677767499228
265,308,8978432,11.098775336637177
266,309,8978432,10.702459015416379
267,310,8978432,11.361709666479381
268,311,8978432,10.510002048520676
269,312,8978432,11.041110108192262
270,313,8978432,10.709799627357938
271,314,8978432,11.572619916116077
272,315,8978432,10.332721087495914
273,316,8978432,11.390321103303389
274,317,8978432,10.624231738631389
275,318,8978432,11.295372743204295
276,319,8978432,10.779775626248655
277,320,8978432,11.821316845553461
278,321,8978432,10.799276394288134
279,322,8978432,11.259577328430758
280,323,8978432,10.506066616350434
281,324,8978432,11.270432167263342
282,325,8978432,10.682073112405028
283,326,8978432,11.130903942615005
284,327,8978432,10.528933237485326
285,328,8978432,11.389858718252201
286,329,8978432,10.899541605158884
287,330,8978432,11.604224261717079
288,331,8978432,10.572575507613466
289,332,8978432,11.162788847197254
290,333,8978432,10.835978835978835
291,334,8978432,11.57118812263993
292,335,8978432,10.621818517370535
293,336,8978432,11.29948098888984
294,337,8978432,10.674757754818152
295,338,8978432,11.325936129738675
296,339,8978432,10.720861448667598
297,340,8978432,11.542611631276428
298,341,8978432,10.948038946707394
299,342,8978432,11.292645040870667
300,343,8978432,10.902506314357879
301,344,8978432,11.496277782188157
302,345,8978432,10.499383141220315
303,346,8978432,11.736742550507527
304,347,8978432,10.461397924133463
305,348,8978432,11.620083736159915
306,349,8978432,10.587736128291999
307,350,8978432,11.72301179948321
308,351,8978432,10.263540122246622
309,352,8978432,11.584087032588192
310,353,8978432,10.678833306175656
311,354,8978432,11.647081105342767
312,355,8978432,10.738916232589572
313,356,8978432,11.393096202187907
314,357,8978432,10.644788477908799
315,358,9043968,10.94593338497289
316,359,9043968,10.693277777909152
317,360,9043968,11.323133629475308
318,361,9043968,10.642942376806682
319,362,9043968,11.350874286488848
320,363,9043968,10.515019183815836
321,364,9043968,11.033979261804166
322,365,9043968,10.495494951839387
323,366,9043968,11.6479484005909
324,367,9043968,10.45743701696044
325,368,9043968,10.988077577754531
326,369,9043968,10.959954337401522
327,370,9043968,11.627342607984634
328,371,9043968,10.554692851982864
329,372,9043968,11.709251169764027
330,373,9043968,10.002519440502827
331,374,9043968,11.661901654902426
332,375,9043968,10.653774658439529
333,376,9043968,11.560283307193503
334,377,9043968,10.772771616195426
335,378,9043968,11.606809591950666
336,379,9043968,10.67550550656893
337,380,9043968,11.322212220871553
338,381,9043968,10.980806589478592
339,382,9043968,11.785437557419026
340,383,9043968,11.012066559678939
341,384,9043968,11.338124012737257
342,385,9043968,11.010323736803148
343,386,9043968,11.692795407678434
344,387,9043968,10.470221584199681
345,388,9043968,11.096375874499103
346,389,9043968,10.840537809565934
347,390,9043968,11.667197308433591
348,391,9043968,10.502893415693775
349,392,9043968,11.750632098932254
350,393,9043968,10.660191634242391
351,394,9043968,11.669606013919964
352,395,9043968,10.85428988401567
353,396,9043968,11.287844805313943
354,397,9043968,10.512672441450112
355,398,9043968,11.102914709572554
356,399,9043968,10.435030627915536
357,400,9043968,11.457168483300649
358,401,9043968,10.571669368818608
359,402,9043968,11.667212359754942
360,403,9043968,10.597832850351368
361,404,9043968,11.596808173701413
362,405,9043968,10.560214100808132
363,406,9043968,11.531496243707636
364,407,9043968,10.845959014506102
365,408,9043968,11.669124193261199
366,409,9043968,10.928579714628205
367,410,9043968,11.798721757133855
368,411,9043968,10.411581255864018
369,412,9043968,11.178890067266403
370,413,9043968,10.791281510975669
371,414,9043968,11.354508235311842
372,415,9043968,10.567321342816381
373,416,9043968,11.268043073879204
374,417,9043968,10.719234242883251
375,418,9043968,11.859137495148278
376,419,9043968,10.44544361530972
377,420,9043968,11.59777481976194
378,421,9043968,10.916338354577057
379,422,9109504,11.61744267162167
380,423,9109504,9.900483313353773
381,424,9109504,11.737206263963655
382,425,9109504,10.808388050563703
383,426,9109504,11.827928675394622
384,427,9109504,10.770357793978203
385,428,9109504,11.164510855044648
386,429,9109504,10.735414773724967
387,430,9109504,11.544886198737471
388,431,9109504,10.739882621192793
389,432,9109504,11.346528906575989
390,433,9109504,10.79895774307276
391,434,9109504,11.21465099730883
392,435,9109504,10.637134846745688
393,436,9109504,11.320344674177521
394,437,9109504,10.799367414246458
395,438,9109504,11.84416854220381
396,439,9109504,10.90070840513115
397,440,9109504,11.130013207683183
398,441,9109504,10.716420544179114
399,442,9109504,11.76096695646785
400,443,9109504,10.36709480205851
401,444,9109504,11.47275356039959
402,445,9109504,10.842156504517414
403,446,9109504,11.464898635212622
404,447,9109504,10.450082366275256
405,448,9109504,11.481545341339343
406,449,9109504,10.840492097077073
407,450,9109504,11.746408188633604
408,451,9109504,10.863257413593049
409,452,9109504,10.983563546569952
410,453,9109504,10.990348235657478
411,454,9109504,11.774115956152924
412,455,9109504,10.615714676937241
413,456,9109504,11.211545443692454
414,457,9109504,11.092282833301065
415,458,9109504,11.46396080647252
416,459,9109504,10.615318820668254
417,460,9109504,11.389656228705746
418,461,9109504,11.087517039922103
419,462,9109504,12.053833685088026
420,463,9109504,10.870309313534213
421,464,9109504,11.170644253855983
422,465,9109504,10.82482787467708
423,466,9109504,11.183356883908962
424,467,9109504,10.829370471418297
425,468,9109504,11.421644630845135
426,469,9109504,10.660637402735404
427,470,9109504,11.565054114958581
428,471,9109504,10.35992639616423
429,472,9109504,11.630732852672342
430,473,9109504,10.827709986996531
431,474,9109504,11.946075808600593
432,475,9109504,10.58412689560299
433,476,9109504,11.492670027604095
434,477,9109504,10.668228146215384
435,478,9109504,11.462128876071409
436,479,9109504,10.727740786712422
437,480,9109504,11.566919095724959
438,481,9109504,10.93419083182395
439,482,9109504,11.546744680095928
440,483,9109504,10.53555451723484
441,484,9109504,11.372820350841273
442,485,9109504,10.527372659236626
443,486,9175040,11.434995295158688
444,487,9175040,10.325473253483356
445,488,9175040,11.402239427342886
446,489,9175040,10.564808918847651
447,490,9175040,11.364741584863593
448,491,9175040,11.011162329627759
449,492,9175040,10.993865030674847
450,493,9175040,10.541103806729273
451,494,9175040,11.597825812160282
452,495,9175040,10.386453633035458
453,496,9175040,11.225006881786205
454,497,9175040,10.498273942539507
455,498,9175040,11.182104810295048
456,499,9175040,10.663046863741382
457,500,9175040,11.937822108359821
458,501,9175040,10.674162009223366
459,502,9175040,11.148625413894711
460,503,9175040,10.325101421875615
461,504,9175040,11.537157659130347
462,505,9175040,10.706047636161662
463,506,9175040,11.639729426630062
464,507,9175040,10.573380090325658
465,508,9175040,11.118349619978284
466,509,9175040,10.980799542339026
467,510,9175040,11.476647157493936
468,511,9175040,10.441297970015682
469,512,9175040,11.691970486664204
470,513,9175040,10.797581822953381
471,514,9175040,11.509818114304855
472,515,9175040,10.78904942715395
473,516,9175040,11.275772863296444
474,517,9175040,10.937236628317962
475,518,9175040,11.38324071696114
476,519,9175040,10.44968172743021
477,520,9175040,11.598778815096678
478,521,9175040,10.695277429041369
479,522,9175040,11.846572385146851
480,523,9175040,10.679740707502093
481,524,9175040,11.589387577746452
482,525,9175040,10.762320897579515
483,526,9175040,11.671475166262143
484,527,9175040,10.613313838081446
485,528,9175040,11.65155463444121
486,529,9175040,10.08892510256571
487,530,9175040,11.250567124208173
488,531,9175040,10.499030774899474
489,532,9175040,11.206593723357738
490,533,9175040,11.06258198935103
491,534,9175040,11.337763794939981
492,535,9175040,10.878298748200791
493,536,9175040,11.485382020291796
494,537,9175040,10.911417514800219
495,538,9175040,11.76296227919702
496,539,9175040,10.519072399564793
497,540,9175040,11.646836453740999
498,541,9175040,11.04340792666487
499,542,9175040,11.825059479467662
500,543,9175040,10.137079230181959
501,544,9175040,11.256309026354984
502,545,9175040,10.78906211415307
503,546,9175040,11.3534770567956
504,547,9175040,10.837181943384682
505,548,9175040,11.490445126006113
506,549,9175040,10.716464037805885
507,550,9240576,11.845525516286582
508,551,9240576,10.218880527279062
509,552,9240576,11.402951995824115
510,553,9240576,10.437943853236295
511,554,9240576,11.638312852103141
512,555,9240576,10.584112679411863
513,556,9240576,11.38004773410772
514,557,9240576,10.60354508119124
515,558,9240576,11.75678708564362
516,559,9240576,10.932358473824312
517,560,9240576,11.320697576125108
518,561,9240576,10.605492246651846
519,562,9240576,11.829981500803338
520,563,9240576,10.405972024995298
521,564,9240576,11.125288950531669
522,565,9240576,11.017881479308778
523,566,9240576,11.500620422285419
524,567,9240576,10.548530489517194
525,568,9240576,11.0456969292725
526,569,9240576,10.86325263599674
527,570,9240576,11.913454918635143
528,571,9240576,10.616409602426456
529,572,9240576,11.910506628995378
530,573,9240576,11.060080982514432
531,574,9240576,11.71147462862111
532,575,9240576,11.08555620470531
533,576,9240576,11.386329862608589
534,577,9240576,11.442275830813465
535,578,9240576,11.658502858930815
536,579,9240576,10.702196361480054
537,580,9240576,11.688705164466528
538,581,9240576,10.887841019151509
539,582,9240576,11.678305487450396
540,583,9240576,10.62969664690786
541,584,9240576,11.47957533188067
542,585,9240576,11.018722313310478
543,586,9240576,11.115426022669725
544,587,9240576,10.350397356556803
545,588,9240576,11.004445566520943
546,589,9240576,11.269434904776771
547,590,8454144,12.039201501528016
548,591,8454144,11.706827481634829
549,592,8454144,10.939924609752595
550,593,8454144,9.833555885377168
551,594,8454144,11.60602778315466
552,595,8454144,9.187569280525814
553,596,8454144,11.106891831173916
554,597,8454144,10.161475035457583
555,598,8454144,11.502956647626926
556,599,8454144,10.5099410115677
557,600,8454144,11.117627333064187
558,601,8454144,11.597891727417146
559,602,8454144,11.36734424959864
560,603,8454144,11.046042686073783
561,604,8454144,10.976300216302398
