idx,og Index,data (B),bandwidth (GB/s)
0,0,67125248,9.336921479875375
1,1,67125248,12.345917631652517
2,2,67125248,10.220588490555983
3,3,67125248,12.346496688759993
4,5,67125248,12.34758455465899
5,7,67125248,12.3387985354153
6,9,67125248,12.349622263936348
7,11,67125248,12.351803835126615
8,13,67125248,12.35064023458494
9,15,67125248,12.353404143919157
10,16,67125248,9.856000582621466
11,17,67125248,12.353765634702386
12,18,67125248,9.887496976683417
13,19,67125248,12.350712953195893
14,21,67125248,12.353185895575525
15,23,67125248,12.350931114166709
16,25,67125248,12.354204453828391
17,29,67125248,12.354349975861943
18,31,67125248,12.354058935223009
19,32,67125248,10.675464223928028
20,33,67125248,12.352967654943368
21,34,67125248,10.576903217084208
22,35,67125248,12.35384066374249
23,37,67125248,12.352747148803266
24,39,67125248,12.355077637456517
25,40,67125248,12.296771617049261
26,42,67125248,10.277627039804777
27,44,67125248,12.230167160487259
28,46,67125248,10.404821308995313
29,48,67125248,10.39388988633733
30,49,67125248,12.352167505261498
31,50,67125248,10.33591531371254
32,51,67125248,12.352603937691947
33,53,67125248,12.352894909779573
34,55,67125248,12.326979521955533
35,57,67125248,12.215068853609333
36,58,67125248,10.563374425822724
37,60,67125248,12.16477192926499
38,62,67125248,12.287695581864398
39,64,67125248,10.871774273484727
40,65,67125248,12.35158337053362
41,66,67125248,11.59880599697093
42,67,67125248,12.340613272439105
43,68,67125248,12.045322905875638
44,70,67125248,12.310555329162401
45,72,67125248,11.18159086339553
46,74,67125248,11.621103395669538
47,77,67125248,12.339742132053228
48,79,67125248,12.354713795944871
49,80,67125248,9.912261196605227
50,81,67125248,12.344970819999128
51,82,67125248,9.84956638590554
52,83,67125248,12.35384066374249
53,85,67125248,12.352383444536578
54,87,67125248,12.352385717621733
55,89,67125248,12.351876567440446
56,91,67125248,12.251598816331096
57,93,67125248,12.35449550132379
58,95,67125248,12.352967654943368
59,96,67125248,10.331893517782412
60,97,67125248,12.35282216547255
61,98,67125248,10.53107782143594
62,99,67125248,12.353986177205844
63,101,67125248,12.352385717621733
64,103,67125248,12.35384066374249
65,105,67125248,12.352747148803266
66,106,67125248,10.664880428265063
67,109,67125248,12.354274940635282
68,111,67125248,12.353695153707006
69,112,67125248,10.619633426638103
70,113,67125248,12.353476895080767
71,114,67125248,10.582826292357359
72,115,67125248,12.355150408330461
73,117,67125248,12.353986177205844
74,119,67125248,12.352894909779573
75,121,67125248,12.35384066374249
76,123,67125248,12.353476895080767
77,125,67125248,12.353913420045675
78,127,67125248,12.351585643324325
79,128,67125248,10.539120206131084
80,129,67125248,12.351658373068572
81,130,67125248,10.727988287077828
82,131,67125248,12.35384066374249
83,133,67125248,12.35325864416655
84,135,67125248,12.352531196811853
85,137,67125248,12.314749336840585
86,139,67125248,12.353911146398229
87,141,67125248,12.353986177205844
88,143,67125248,12.35449550132379
89,144,67125248,10.680464901218198
90,145,67125248,12.351440186405314
91,146,67125248,10.633416288195011
92,147,67125248,12.352167505261498
93,149,67125248,12.352531196811853
94,151,67125248,12.354788836502529
95,153,67125248,12.355950944524976
96,155,67125248,12.353040400963948
97,157,67125248,12.351585643324325
98,159,67125248,12.353185895575525
99,160,67125248,10.628028759299985
100,161,67125248,12.354713795944871
101,162,67125248,10.698440718983562
102,163,67125248,12.353331393614424
103,165,67125248,12.353911146398229
104,167,67125248,12.355657554161297
105,169,67125248,12.352967654943368
106,171,67125248,12.355441500398777
107,173,67125248,12.354131694097186
108,175,67125248,12.352385717621733
109,176,67125248,10.608677099297324
110,177,67125248,12.352458456788453
111,178,67125248,10.797011623412564
112,179,67125248,12.354349975861943
113,181,67125248,12.350128956028367
114,183,67125248,12.353622399974677
115,185,67125248,12.353620126434349
116,187,67125248,12.350785672663163
117,189,67125248,12.353695153707006
118,191,67125248,12.352894909779573
119,192,67125248,10.634764023973878
120,193,67125248,12.35173110366933
121,194,67125248,10.837061726222524
122,195,67125248,12.352385717621733
123,197,67125248,12.352531196811853
124,199,67125248,12.354131694097186
125,201,67125248,12.353986177205844
126,203,67125248,12.353185895575525
127,205,67125248,12.354932098280292
128,207,67125248,12.35456826534036
129,208,67125248,10.737488452743628
130,209,67125248,12.352674406236508
131,210,67125248,10.765204421856533
132,211,67125248,12.346351351674471
133,213,67125248,12.353767908296271
134,215,67125248,12.35384066374249
135,217,67125248,12.354204453828391
136,219,67125248,12.354274940635282
137,221,67125248,12.353549647099268
138,223,67125248,12.351876567440446
139,224,67125248,10.32233523653169
140,225,67125248,12.352458456788453
141,226,67125248,10.87481782216073
142,227,67125248,12.353476895080767
143,229,67125248,12.35064023458494
144,231,67125248,12.35311087448844
145,233,67125248,12.307523962683542
146,235,67125248,12.331617415394394
147,237,67125248,12.346639758295531
148,239,67125248,12.353913420045675
149,240,67125248,10.663958732816594
150,241,67125248,12.352022034637795
151,242,67125248,10.818394280624162
152,243,67125248,12.35384066374249
153,245,67125248,12.351367459230518
154,247,67125248,12.354058935223009
155,249,67125248,12.354274940635282
156,251,67125248,12.353622399974677
157,252,67125248,10.64874669671942
158,255,67125248,12.353913420045675
159,256,67125248,10.628836540577858
160,257,67125248,12.353983903531615
161,258,67125248,11.131509027392449
162,259,67125248,12.350712953195893
163,261,67125248,12.350785672663163
164,263,67125248,12.353767908296271
165,265,67125248,12.352312979311677
166,266,67125248,10.208849553215247
167,269,67125248,12.351585643324325
168,271,67125248,12.35449550132379
169,272,67125248,10.664229803175187
170,273,67125248,12.352603937691947
171,274,67125248,10.93850083857456
172,275,67125248,12.34969497056046
173,277,67125248,12.352894909779573
174,279,67125248,12.355805384773545
175,281,67125248,12.352747148803266
176,283,67125248,12.354713795944871
177,285,67125248,12.354641030214049
178,287,67125248,12.35384066374249
179,288,67125248,10.602458782057216
180,289,67125248,12.354857055982343
181,290,67125248,10.972661867210768
182,291,67125248,12.352237968826655
183,293,67125248,12.353113147841327
184,295,67125248,12.3557326061839
185,297,67125248,12.29172997151259
186,298,67125248,11.073568475395076
187,301,67125248,12.30658528675017
188,303,67125248,12.356096507706035
189,304,67125248,10.636219962395852
190,305,67125248,12.351949300610833
191,306,67125248,11.125605089798425
192,307,67125248,12.35325864416655
193,309,67125248,12.35282216547255
194,311,67125248,12.352167505261498
195,313,67125248,12.353695153707006
196,315,67125248,12.353767908296271
197,316,67125248,10.626627213595446
198,319,67125248,12.354786562532842
199,320,67125248,10.64220967762904
200,321,67125248,12.353185895575525
201,322,67125248,10.935309311310204
202,323,67125248,12.353767908296271
203,325,67125248,12.352458456788453
204,327,67125248,12.35500259339059
205,329,67125248,12.352385717621733
206,331,67125248,12.353695153707006
207,333,67125248,12.354786562532842
208,335,67125248,12.355875889849868
209,336,67125248,10.623828593685678
210,337,67125248,12.351367459230518
211,338,67125248,11.091485372842724
212,339,67125248,12.352747148803266
213,341,67125248,12.351003836203018
214,343,67125248,12.353695153707006
215,345,67125248,12.354058935223009
216,347,67125248,12.355659828451616
217,349,67125248,12.353331393614424
218,351,67125248,12.352892636507011
219,352,67125248,10.709966095204665
220,353,67125248,12.351803835126615
221,354,67125248,11.17867105784893
222,355,67125248,12.353113147841327
223,357,67125248,12.352531196811853
224,359,67125248,12.353986177205844
225,361,67125248,12.328066215199398
226,363,67125248,12.353767908296271
227,365,67125248,12.355368726095787
228,367,67125248,12.353695153707006
229,368,67125248,10.562789315107338
230,369,67125248,12.35384066374249
231,370,67125248,10.848384667349755
232,371,67125248,12.353113147841327
233,373,67125248,12.354058935223009
234,375,67125248,12.353040400963948
235,377,67125248,12.352019761686485
236,379,67125248,12.354131694097186
237,381,67125248,12.354641030214049
238,383,67125248,12.353113147841327
239,384,67125248,10.431726255108808
240,385,67125248,12.352097042500258
241,386,67125248,10.776488349956757
242,387,67125248,12.352676679428752
243,389,67125248,12.352022034637795
244,391,67125248,12.326182735328224
245,393,67125248,12.354056661522
246,395,67125248,12.354347702053804
247,397,67125248,12.352603937691947
248,399,67125248,12.354277214416639
249,401,67190784,12.30459590248369
250,403,67190784,12.253612347937255
251,405,67190784,12.263560348004352
252,406,67190784,10.978723028791565
253,407,67190784,12.301928536863885
254,408,67190784,11.015240166811973
255,409,67190784,12.354187991442815
256,411,67190784,12.354406062285411
257,413,67190784,12.213410637376636
258,415,67190784,12.330971224704966
259,417,67190784,12.305605477624626
260,419,67190784,12.354115302872707
261,421,67190784,12.306615218447655
262,422,67190784,10.964447959786288
263,423,67190784,12.306470959613304
264,424,67190784,10.849773964334227
265,425,67190784,12.355205721244877
266,427,67190784,12.353388464213557
267,429,67190784,12.330319514691334
268,431,67190784,12.298758039448186
269,433,67190784,12.347576832401105
270,435,67190784,12.32250436436041
271,437,67190784,12.258403175069994
272,438,67190784,10.961471505319246
273,439,67190784,12.26492140155439
274,440,67190784,10.9933806517122
275,441,67190784,12.352516370707946
276,443,67190784,12.354551447124186
277,445,67190784,12.228632538520927
278,447,67190784,12.352879728037584
279,449,67190784,12.312388346411849
280,451,67190784,12.331695427745531
281,453,67190784,12.307552983314933
282,454,67190784,10.867575311951896
283,455,67190784,12.355060321007164
284,456,67190784,10.986305621100001
285,457,67190784,12.352296095734602
286,459,67190784,12.352589040463771
287,461,67190784,12.32409553584612
288,463,67190784,12.355714649028426
289,465,67190784,12.331767852728218
290,467,67190784,12.35549653198738
291,469,67190784,12.352007706356916
292,470,67190784,10.884983725365297
293,471,67190784,12.354696835384733
294,472,67190784,11.041013625197866
295,473,67190784,12.356732630386468
296,475,67190784,12.355351124904908
297,477,67190784,12.353751872852161
298,479,67190784,12.238112012298075
299,481,67190784,12.354115302872707
300,483,67190784,12.354115302872707
301,485,67190784,12.354187991442815
302,486,67207168,10.048816489306029
303,487,67207168,12.353566206306448
304,488,67207168,10.946199305120777
305,489,67207168,12.35349354277134
306,491,67207168,12.30932751535434
307,493,67207168,12.35305757951111
308,495,67207168,12.186050998261134
309,497,67207168,11.960845933149917
310,499,67207168,12.354292888675245
311,501,67207168,12.031489781753793
312,502,67207168,10.075186757099813
313,503,67207168,12.353929536804626
314,504,67207168,10.190114520425816
315,505,67207168,12.354438235408198
316,507,67207168,12.353711535941146
317,509,67207168,12.35465626192019
318,511,67207168,12.354801617203403
319,513,67207168,12.353856868995255
320,515,67207168,12.252667542371569
321,517,67207168,12.241167537117564
322,518,67207168,10.893398072981872
323,519,67207168,12.11058233074293
324,520,67207168,10.951907351531116
325,521,67207168,12.199287506902209
326,523,67207168,12.332746795158226
327,525,67207168,12.33513709354598
328,527,67207168,12.337818227145481
329,529,67207168,12.355964582610577
330,531,67207168,12.321604307114766
331,533,67207168,12.124075231965467
332,534,67207168,10.951678915377972
333,535,67207168,12.26017773537441
334,536,67207168,10.958766657138558
335,537,67207168,12.31604061001147
336,539,67207168,12.240382762571008
337,541,67207168,12.314668522465185
338,543,67207168,12.244379026595526
339,545,67207168,12.137105042122279
340,547,67207168,12.303630740052194
341,549,67207168,12.098232208359743
342,550,67207168,10.240397870163472
343,551,67207168,12.352476343027707
344,552,67207168,10.211865712485805
345,553,67207168,12.308459588421172
346,555,67207168,12.355235432212472
347,557,67207168,12.353127967329462
348,559,67207168,12.352839609419874
349,561,67207168,12.264616650251718
350,563,67207168,12.35349354277134
351,565,67207168,12.351602320824382
352,566,67207168,10.255048508682826
353,567,67207168,12.30629593997805
354,568,67207168,10.206902836092498
355,569,67207168,12.354220216591235
356,571,67207168,12.35509460934122
357,573,67207168,12.354874296127619
358,575,67207168,12.352333312748307
359,577,67207168,12.35363887069638
360,579,67207168,12.356691547177762
361,581,67207168,12.353781931212215
362,582,67207168,10.735974474109172
363,583,67207168,12.351241397092512
364,584,67207168,12.30543069357509
365,585,67207168,12.34855442697151
366,586,67207168,12.298659387808021
367,588,67207168,12.280106394311263
368,590,67207168,12.27586927447487
369,592,67207168,12.28039136649002
370,594,67207168,12.294987491367444
371,596,67207168,12.294051868414261
372,598,67207168,12.281973539190394
373,599,67207168,12.314885147542059
374,600,67207168,12.309471805982389
375,601,67207168,12.289160160232093
376,602,67207168,12.293692051347763
377,604,67207168,12.30593765912929
378,606,67207168,12.285491687155536
379,608,67207168,12.320373267494805
380,610,67207168,12.297291170077733
381,612,67207168,12.32073690680925
382,614,67207168,12.280178197078397
383,615,67207168,12.350442446001521
384,616,67207168,12.205881081630837
385,617,67207168,12.349934076394204
386,618,67207168,12.281755825993391
387,620,67207168,12.261322954160132
388,622,67207168,12.291245853747213
389,624,67207168,12.31864119350503
390,626,67207168,10.746301915531882
391,629,67207168,12.353566206306448
392,630,67207168,10.747071775266877
393,631,67207168,12.35290999475425
394,632,67207168,10.886285278047701
395,633,67207168,12.355526173456763
396,635,67207168,12.354581314438722
397,637,67207168,12.246166147080084
398,639,67207168,12.286356377849257
399,641,67207168,12.344707559904478
400,643,67207168,12.298657137199946
401,645,67207168,12.334270050594478
402,646,67207168,10.897920081362457
403,647,67207168,12.352476343027707
404,648,67207168,10.937878014329371
405,649,67207168,12.353784202040767
406,651,67207168,12.354002205468893
407,653,67207168,12.35494697590693
408,655,67207168,12.350587702148093
409,657,67207168,12.353781931212215
410,659,67207168,12.355308116240755
411,661,67207168,12.354510910057172
412,662,67207168,10.895828185927853
413,663,67207168,12.305505045909102
414,664,67207168,10.93964240300079
415,665,67207168,12.30831757566656
416,667,67207168,12.331877825409876
417,669,67207168,12.299883840719584
418,671,67207168,12.35494697590693
419,673,67207168,12.35349354277134
420,675,67207168,12.354004476378428
421,677,67207168,12.352258393447679
422,678,67207168,10.887129998555018
423,679,67207168,12.308533977362405
424,680,67207168,10.88752506941677
425,681,67207168,12.35262164702068
426,683,67207168,12.35262164702068
427,685,67207168,12.35465626192019
428,687,67207168,12.352766954432157
429,689,67207168,12.353929536804626
430,691,67207168,12.305216653993524
431,693,67207168,12.352766954432157
432,694,67207168,10.933662522946854
433,695,67207168,12.354220216591235
434,696,67207168,11.030251505583633
435,697,67207168,12.335644245659445
436,699,67207168,12.355964582610577
437,701,67207168,12.353277827937193
438,703,67207168,12.259245166414273
439,705,67207168,12.356982356956983
440,707,67207168,12.270705245641716
441,709,67207168,12.339918205350326
442,710,67207168,10.873883523357911
443,711,67207168,12.328330802809752
444,712,67207168,10.864433444660344
445,713,67207168,12.356328054201724
446,715,67207168,12.352766954432157
447,717,67207168,12.283050996456755
448,719,67207168,12.353711535941146
449,721,67207168,12.265619430757104
450,723,67207168,12.35465626192019
451,725,67207168,12.346739568347438
452,726,67207168,10.928485245841927
453,727,67207168,12.352258393447679
454,728,67207168,10.958766657138558
455,729,67207168,12.327098418814721
456,731,67207168,12.353859139851357
457,733,67207168,12.302547417417891
458,735,67207168,12.353348218265529
459,737,67207168,12.327534812858815
460,739,67207168,12.354581314438722
461,741,67207168,12.355383072540608
462,742,67207168,10.909978253797469
463,743,67207168,12.354147545362183
464,744,67207168,10.962770844945371
465,745,67207168,12.353275557294797
466,747,67207168,12.305288750705143
467,749,67207168,12.342386083387066
468,751,67207168,12.355239974939186
469,753,67207168,12.35494697590693
470,755,67207168,12.355165020375575
471,757,67207168,12.354874296127619
472,758,67207168,11.034132385287226
473,759,67207168,12.353929536804626
474,760,67207168,10.943292273768714
475,761,67207168,12.302621734913002
476,763,67207168,12.35494697590693
477,765,67207168,12.302835684230143
478,767,67207168,12.350515073647712
479,769,67207168,12.304279473616086
480,771,67207168,12.351386672033065
481,773,67207168,12.30543069357509
482,774,67207168,10.966434378193613
483,775,67207168,12.35501965654135
484,776,67207168,11.014284101183598
485,777,67207168,12.356255358172763
486,779,67207168,12.353711535941146
487,781,67207168,12.304351559346145
488,783,67207168,12.354365561614227
489,785,67207168,12.354438235408198
490,787,67207168,12.354365561614227
491,789,67207168,12.304856183107491
492,790,67207168,10.920870482540495
493,791,67207168,12.353350488934637
494,792,67207168,10.933093351501155
495,793,67207168,12.354728939134265
496,795,67207168,12.352185745296792
497,797,67207168,12.354583585561164
498,799,67207168,12.353711535941146
499,801,67207168,12.353929536804626
500,803,67207168,12.352115368215516
501,805,67207168,12.296499183156763
502,806,67207168,10.935770752113658
503,807,67207168,12.352766954432157
504,808,67207168,10.990364669484501
505,809,67207168,12.304207388730658
506,811,67207168,12.354220216591235
507,813,67207168,12.355819199961466
508,815,67207168,12.353202897178825
509,817,67207168,12.356182662999183
510,819,67207168,12.353348218265529
511,821,67207168,12.353784202040767
512,822,67207168,10.96557372876544
513,823,67207168,12.352984921959335
514,824,67207168,10.966892492020886
515,825,67207168,12.354874296127619
516,827,67207168,12.35494697590693
517,829,67207168,12.317701967231443
518,831,67207168,12.35298719249489
519,833,67207168,12.354220216591235
520,835,67207168,12.356475720643997
521,837,67207168,12.354438235408198
522,838,67207168,10.866513301327966
523,839,67207168,12.352331042453118
524,840,67207168,10.87348944186766
525,841,67207168,12.354801617203403
526,843,67207168,12.356473448825847
527,845,67207168,12.352113098000439
528,847,67207168,12.326883624803079
529,849,67207168,12.266479087427488
530,851,67207168,12.317699709648533
531,853,67207168,12.355237703575412
532,854,67207168,10.927746035049609
533,855,67207168,12.353856868995255
534,856,67207168,10.938162841783166
535,857,67207168,12.354147545362183
536,859,67207168,12.353929536804626
537,861,67207168,12.356473448825847
538,863,67207168,12.354002205468893
539,865,67207168,12.354874296127619
540,867,67207168,12.352766954432157
541,869,67207168,12.354292888675245
542,870,67207168,10.859265358566368
543,871,67207168,12.306298193382737
544,872,67207168,10.948141156661778
545,873,67207168,12.356255358172763
546,875,67207168,12.35262164702068
547,877,67207168,12.35422248758092
548,879,67207168,12.353784202040767
549,881,67207168,12.353784202040767
550,883,67207168,12.307956923082559
551,885,67207168,12.354074874988074
552,886,67207168,10.865443410738667
553,887,67207168,12.311564400292003
554,888,67207168,10.921156199589493
555,889,67207168,12.35465626192019
556,891,67207168,12.304135304689847
557,893,67207168,12.351967805971283
558,895,67207168,12.35284187990201
559,897,67207168,12.354147545362183
560,899,67207168,12.306512270591341
561,901,67207168,12.35494697590693
