idx,og Index,data (B),bandwidth (GB/s)
0,0,67125248,9.382232486459234
1,1,67125248,12.346496688759993
2,2,67125248,9.540461712580813
3,3,67125248,12.346278684414832
4,5,67125248,12.346133352461722
5,7,67125248,12.348168311212794
6,8,67125248,9.944074583024458
7,9,67125248,12.35005851652289
8,10,67125248,9.915353548811941
9,11,67125248,12.353185895575525
10,13,67125248,12.35064023458494
11,15,67125248,12.350787945160311
12,16,67125248,10.038248839380836
13,17,67125248,12.350785672663163
14,18,67125248,10.08050831103866
15,19,67125248,12.354277214416639
16,21,67125248,12.353260917573827
17,23,67125248,12.352242514890722
18,24,67125248,10.044305210479976
19,25,67125248,12.353329120181208
20,26,67125248,10.080411426436395
21,27,67125248,12.353404143919157
22,29,67125248,12.35282216547255
23,31,67125248,12.352676679428752
24,32,67125248,10.062325174772761
25,33,67125248,12.305935518052763
26,34,67125248,10.025391291256666
27,35,67125248,12.353767908296271
28,37,67125248,12.352603937691947
29,38,67125248,10.008840252193512
30,40,67125248,10.048202452455898
31,41,67125248,12.352749422022281
32,42,67125248,9.993105415446657
33,43,67125248,12.352458456788453
34,45,67125248,12.351803835126615
35,47,67125248,12.353842937363993
36,48,67125248,10.110973721205673
37,49,67125248,12.351076559095704
38,50,67125248,10.083512657709687
39,51,67125248,12.297348325936326
40,53,67125248,12.352824438719175
41,55,67125248,12.353404143919157
42,56,67125248,10.05972087656
43,57,67125248,12.350494799931923
44,58,67125248,10.017013265237294
45,59,67125248,12.352312979311677
46,61,67125248,12.352603937691947
47,63,67125248,12.351949300610833
48,64,67125248,10.10371574533161
49,65,67125248,12.351585643324325
50,66,67125248,10.117166986671915
51,67,67125248,12.353767908296271
52,69,67125248,12.350422083889828
53,71,67125248,12.301533338085939
54,72,67125248,10.26721237304266
55,73,67125248,12.352094769521344
56,74,67125248,10.188717575711948
57,75,67125248,12.353767908296271
58,76,67125248,10.211732046358126
59,79,67125248,12.353040400963948
60,80,67125248,10.25797398847199
61,81,67125248,12.352312979311677
62,82,67125248,10.262341633734291
63,83,67125248,12.353695153707006
64,85,67125248,12.352676679428752
65,87,67125248,12.35325864416655
66,88,67125248,10.335507900764094
67,89,67125248,12.352531196811853
68,90,67125248,10.66412306757669
69,91,67125248,12.3542067275838
70,93,67125248,12.354131694097186
71,95,67125248,12.352676679428752
72,96,67125248,10.876285604614736
73,97,67125248,12.35173110366933
74,98,67125248,10.7959002589559
75,99,67125248,12.354641030214049
76,101,67125248,12.350785672663163
77,103,67125248,12.353549647099268
78,104,67125248,10.917209394311394
79,105,67125248,12.353767908296271
80,106,67125248,10.685744131777145
81,107,67125248,12.353622399974677
82,109,67125248,12.302904171131894
83,111,67125248,12.352531196811853
84,112,67125248,10.542563134603022
85,113,67125248,12.309979638406114
86,114,67125248,10.738312959276149
87,115,67125248,12.352676679428752
88,117,67125248,12.303264967450767
89,119,67125248,12.354934372303552
90,120,67125248,12.303048487120108
91,121,67125248,12.352312979311677
92,122,67125248,12.33147242839919
93,123,67125248,12.351440186405314
94,124,67125248,12.339304339705814
95,126,67125248,12.309473978005688
96,128,67125248,12.28719399966136
97,129,67125248,12.330530096026232
98,130,67125248,12.343590597023022
99,131,67125248,12.347296103897538
100,132,67125248,12.340250282331015
101,134,67125248,12.331762405799003
102,136,67125248,10.438632111150921
103,137,67125248,12.35173110366933
104,138,67125248,10.77759572115376
105,139,67125248,12.353695153707006
106,141,67125248,12.351658373068572
107,143,67125248,12.352894909779573
108,144,67125248,10.994343236804585
109,145,67125248,12.350276654374392
110,146,67125248,10.839751519093717
111,147,67125248,12.353113147841327
112,149,67125248,12.3523152523709
113,151,67125248,12.354786562532842
114,152,67125248,11.016631153719718
115,153,67125248,12.353331393614424
116,154,67125248,10.78552179398436
117,155,67125248,12.350712953195893
118,157,67125248,12.351369731941766
119,159,67125248,12.353185895575525
120,160,67125248,10.516084105175805
121,161,67125248,12.281079340510763
122,162,67125248,10.741117228880402
123,163,67125248,12.352458456788453
124,164,67125248,11.0263598428768
125,167,67125248,12.278922678286097
126,168,67125248,10.576424924756006
127,169,67125248,12.35195157353621
128,170,67125248,10.805688125409588
129,171,67125248,12.35166064588688
130,173,67125248,12.353549647099268
131,175,67125248,12.352603937691947
132,176,67125248,10.580639385084671
133,177,67125248,12.351803835126615
134,178,67125248,10.729524745749165
135,179,67125248,12.352312979311677
136,181,67125248,12.352167505261498
137,183,67125248,12.35151291443658
138,184,67125248,10.975415813435134
139,185,67125248,12.352749422022281
140,186,67125248,10.818394280624162
141,187,67125248,12.352824438719175
142,189,67125248,12.354131694097186
143,191,67125248,12.354422738164322
144,192,67125248,10.595496760828519
145,193,67125248,12.351949300610833
146,194,67125248,10.816387802285702
147,195,67125248,12.351294732912173
148,197,67125248,12.353040400963948
149,199,67125248,12.353260917573827
150,201,67190784,12.354406062285411
151,203,67190784,12.353749601481772
152,204,67190784,10.46538636045398
153,205,67190784,12.354769530798212
154,206,67190784,11.200386733055842
155,207,67190784,12.354117574377575
156,209,67190784,12.353751872852161
157,210,67190784,10.954437473618928
158,212,67190784,11.331310394513544
159,213,67190784,12.354262952426621
160,214,67190784,10.88746713057095
161,215,67190784,12.352952402068741
162,217,67190784,12.352080370127911
163,219,67190784,12.354042615157953
164,220,67190784,11.343065397689749
165,221,67190784,12.351569471114871
166,222,67190784,10.911796555426863
167,223,67190784,12.355278422647096
168,224,67190784,11.409571498241462
169,227,67190784,12.353606506830992
170,228,67190784,10.530733034848499
171,229,67190784,12.354771802543667
172,230,67190784,10.937091216945962
173,231,67190784,12.291918217529838
174,233,67190784,12.352807054861524
175,235,67190784,12.353824557145655
176,236,67190784,11.386122479966488
177,237,67190784,12.353243106744637
178,238,67190784,11.013909426691642
179,239,67190784,12.353172700450365
180,241,67190784,12.354260680868293
181,243,67190784,12.352371033761344
182,244,67207168,10.163090834882963
183,245,67207168,12.353784202040767
184,246,67207168,10.025647405752556
185,247,67207168,12.354002205468893
186,249,67207168,12.352331042453118
187,251,67207168,12.35262164702068
188,252,67207168,10.077118923110786
189,253,67207168,12.35422248758092
190,254,67207168,10.034558498894599
191,255,67207168,12.35262164702068
192,257,67207168,12.354220216591235
193,259,67207168,12.353130237917602
194,260,67207168,10.01952525635024
195,261,67207168,12.354583585561164
196,262,67207168,10.066734130557608
197,263,67207168,12.353130237917602
198,265,67207168,12.29873140770137
199,267,67207168,12.352984921959335
200,268,67207168,10.13998139391165
201,269,67207168,12.354728939134265
202,270,67207168,10.050645363565003
203,271,67207168,12.302765868371882
204,273,67207168,12.353130237917602
205,275,67207168,12.352548994596887
206,276,67207168,10.065963672037354
207,277,67207168,12.354147545362183
208,278,67207168,10.00997435217649
209,279,67207168,12.353420880091038
210,281,67207168,12.35465626192019
211,283,67207168,12.295491347330525
212,284,67207168,10.081425529537151
213,285,67207168,12.353348218265529
214,286,67207168,9.992828531240614
215,287,67207168,12.354074874988074
216,289,67207168,12.351241397092512
217,291,67207168,12.355237703575412
218,292,67207168,10.038585881398394
219,293,67207168,12.352548994596887
220,294,67207168,10.107284905853614
221,295,67207168,12.352551264972195
222,297,67207168,12.355455758305999
223,299,67207168,12.295707298242469
224,300,67207168,10.06504711572057
225,301,67207168,12.353856868995255
226,302,67207168,10.102810386265011
227,303,67207168,12.350369819209503
228,305,67207168,12.35305757951111
229,307,67207168,12.353856868995255
230,308,67207168,10.099509835302378
231,309,67207168,12.352333312748307
232,310,67207168,10.138219272931881
233,311,67207168,12.355383072540608
234,313,67207168,12.353566206306448
235,315,67207168,12.352984921959335
236,316,67207168,10.157046863424355
237,317,67207168,12.35305757951111
238,318,67207168,10.093732235536752
239,319,67207168,12.354801617203403
240,321,67207168,12.354874296127619
241,323,67207168,12.354801617203403
242,324,67207168,10.088156581512393
243,325,67207168,12.35458585668444
244,326,67207168,10.069824688366921
245,327,67207168,12.30507246310474
246,329,67207168,12.352548994596887
247,331,67207168,12.35494697590693
248,332,67207168,10.220512631784167
249,333,67207168,12.354365561614227
250,334,67207168,10.686045354244373
251,335,67207168,12.353202897178825
252,336,67207168,10.945687655444353
253,339,67207168,12.352331042453118
254,340,67207168,10.7979610097009
255,341,67207168,12.353420880091038
256,342,67207168,10.802348553001327
257,343,67207168,12.352476343027707
258,345,67207168,12.302189354798852
259,346,67207168,12.347392855994599
260,348,67207168,12.31488289099156
261,349,67207168,12.353130237917602
262,350,67207168,12.318496687832548
263,351,67207168,12.323120291997464
264,352,67207168,12.292612726508844
265,355,67207168,12.353854598139987
266,356,67207168,10.88848464660591
267,357,67207168,12.354220216591235
268,358,67207168,10.864096245626536
269,359,67207168,12.355746509919852
270,361,67207168,12.354004476378428
271,363,67207168,12.354801617203403
272,364,67207168,10.985880562541325
273,365,67207168,12.335789153923033
274,366,67207168,10.824453181824332
275,367,67207168,12.352113098000439
276,369,67207168,12.354220216591235
277,371,67207168,12.353636599921254
278,372,67207168,10.918885073282762
279,373,67207168,12.354072604052659
280,374,67207168,10.804293541280941
281,375,67207168,12.350660331502677
282,377,67207168,12.352766954432157
283,379,67207168,12.356037275218107
284,380,67207168,11.164884601129692
285,381,67207168,12.354874296127619
286,382,67207168,10.947056915855594
287,383,67207168,12.353275557294797
288,385,67207168,12.355528444926602
289,387,67207168,12.356182662999183
290,388,67207168,11.205092171226891
291,389,67207168,12.356691547177762
292,390,67207168,10.958766657138558
293,391,67207168,12.351386672033065
294,393,67207168,12.354002205468893
295,395,67207168,12.353786472870155
296,396,67207168,11.212869132244856
297,397,67207168,12.353856868995255
298,398,67207168,11.009955411159956
299,399,67207168,12.354581314438722
300,401,67207168,12.353275557294797
301,403,67207168,12.35465626192019
302,404,67207168,10.550658639392774
303,405,67207168,12.336876074428218
304,406,67207168,10.962084204946276
305,407,67207168,12.352984921959335
306,409,67207168,12.353566206306448
307,411,67207168,12.354365561614227
308,412,67207168,10.605534804378735
309,413,67207168,12.353127967329462
310,414,67207168,11.016421733147451
311,415,67207168,12.35494697590693
312,417,67207168,12.35610996868097
313,419,67207168,12.354801617203403
314,420,67207168,10.61926429304021
315,421,67207168,12.35349354277134
316,422,67207168,10.972507494223313
317,423,67207168,12.354438235408198
318,425,67207168,12.352694300299099
319,427,67207168,12.352982651424615
320,428,67207168,11.225814749381184
321,429,67207168,12.353202897178825
322,430,67207168,11.001360454687495
323,431,67207168,12.351749874336187
324,433,67207168,12.352401421992061
325,435,67207168,12.3526193766195
326,436,67207168,10.615720014974151
327,437,67207168,12.353127967329462
328,438,67207168,10.996234027914694
329,439,67207168,12.354583585561164
330,441,67207168,12.35422248758092
331,443,67207168,12.353202897178825
332,444,67207168,10.65957795745569
333,445,67207168,12.350151943958341
334,446,67207168,10.972851456662104
335,447,67207168,12.353420880091038
336,449,67207168,12.354728939134265
337,451,67207168,12.353202897178825
338,452,67207168,10.625225959591138
339,453,67207168,12.35262164702068
340,454,67207168,10.964087145407932
341,455,67207168,12.352764683977563
342,457,67207168,12.355092338030893
343,459,67207168,12.354074874988074
344,460,67207168,10.604729867797422
345,461,67207168,12.354147545362183
346,462,67207168,11.082285438011944
347,463,67207168,12.352984921959335
348,464,67207168,11.31673094512914
349,467,67207168,12.355819199961466
350,468,67207168,11.235002662177603
351,469,67207168,12.353711535941146
352,470,67207168,10.850849666533414
353,471,67207168,12.35494697590693
354,473,67207168,12.35145931078489
355,475,67207168,12.353348218265529
356,476,67207168,11.411857557172063
357,477,67207168,12.33745584368642
358,478,67207168,10.909354877876954
359,479,67207168,12.353420880091038
360,481,67207168,12.352040451558608
361,483,67207168,12.353856868995255
362,484,67207168,10.486545340499415
363,485,67207168,12.354728939134265
364,486,67207168,10.850735793550603
365,487,67207168,12.352476343027707
366,489,67207168,12.355673820733514
367,491,67207168,12.354440506478037
368,492,67207168,11.303514076083374
369,493,67207168,12.354583585561164
370,494,67207168,10.881883919521508
371,495,67207168,12.353784202040767
372,497,67207168,12.354074874988074
373,499,67207168,12.353566206306448
374,500,67223552,10.275912787454693
375,501,67223552,12.35309006639481
376,502,67223552,10.358555025567576
377,503,67223552,12.353671218955506
378,505,67223552,12.35352592568907
379,506,67223552,10.3522253259462
380,508,67223552,10.384466326570966
381,509,67223552,12.352218440068171
382,510,67223552,10.30469473456696
383,511,67223552,12.354252426199555
384,513,67223552,12.299928952543116
385,515,67223552,12.354833688134676
386,516,67223552,10.434758420631727
387,517,67223552,12.353671218955506
388,518,67223552,10.175861443636547
389,519,67223552,12.354397736555745
390,521,67223552,12.353382905967829
391,523,67223552,12.355415004768584
392,524,67223552,10.370367307887218
393,525,67223552,12.354397736555745
394,526,67223552,10.261806025172305
395,527,67223552,12.352581602755572
396,529,67223552,12.354688367523185
397,531,67223552,12.355051675461961
398,532,67223552,10.27852725447093
399,533,67223552,12.352218440068171
400,534,67223552,10.382669981367165
401,535,67223552,12.356289353492517
402,537,67223552,12.352726873809836
403,539,67223552,12.352073180972198
404,540,67223552,10.280839589142955
405,541,67223552,12.32742869329742
406,542,67223552,10.311978704634178
407,543,67223552,12.354543050330248
408,544,67223552,10.379027875218624
409,547,67223552,12.352218440068171
410,548,67223552,10.241244899072242
411,549,67223552,12.353307992197356
412,550,67223552,10.310409758083205
413,551,67223552,12.354397736555745
414,553,67223552,12.353889165263405
415,555,67223552,12.353453280337455
416,556,67223552,10.312788670338799
417,557,67223552,12.352218440068171
418,558,67223552,10.387444496088767
419,559,67223552,12.354906349722416
420,561,67223552,12.35352592568907
421,563,67223552,12.35643244052012
422,564,67223552,10.373286171992095
423,565,67223552,12.353671218955506
424,566,67223552,10.404524877913484
425,567,67223552,12.35309006639481
426,569,67223552,12.353307992197356
427,571,67223552,12.353743866870358
428,572,67223552,10.372978845765411
429,573,67223552,12.354034467074342
430,574,67223552,10.31851267773052
431,575,67223552,12.355415004768584
432,577,67223552,12.354906349722416
433,579,67223552,12.353382905967829
434,580,67223552,10.270085305036124
435,581,67223552,12.352581602755572
436,582,67223552,10.196705009226909
437,583,67223552,12.353961815741629
438,585,67223552,12.353743866870358
439,587,67223552,12.354543050330248
440,588,67223552,10.422021830516988
441,589,67223552,12.355417275643948
442,590,67223552,12.315863026698837
443,591,67223552,12.33220492832858
444,592,67223552,12.277428933204051
445,594,67223552,12.242298749847253
446,596,67223552,12.316657316371128
447,597,67223552,12.333435770174294
448,598,67223552,12.29481788554572
449,599,67223552,12.310668822964832
450,600,67223552,12.319548764014304
451,603,67223552,12.35214807976692
452,604,67223552,10.884423952627895
453,605,67223552,12.35309006639481
454,606,67223552,10.830106168742248
455,607,67223552,12.35417977230329
456,609,67223552,12.354252426199555
457,611,67223552,12.352436335118112
458,612,67223552,11.046748513237485
459,613,67223552,12.353307992197356
460,614,67223552,11.049593814921357
461,615,67223552,12.311245990861003
462,617,67223552,12.352508968509749
463,619,67223552,12.353307992197356
464,620,67223552,11.089959365909564
465,621,67223552,12.354976741450576
466,622,67223552,11.017084756762603
467,623,67223552,12.354470393015701
468,625,67223552,12.354107119261556
469,627,67223552,12.349386503800055
470,628,67223552,11.038736165977562
471,629,67223552,12.354470393015701
472,630,67223552,11.045352726909458
473,631,67223552,12.35432508095037
474,633,67223552,12.357159282940282
475,635,67223552,12.353598571895082
476,636,67223552,11.264134006956182
477,637,67223552,12.351637424182096
478,638,67223552,11.12761769498994
479,639,67223552,12.352801780532337
480,641,67223552,12.340463512102726
481,643,67223552,12.352436335118112
482,644,67223552,11.261960090673924
483,645,67223552,12.351710048178678
484,646,67223552,11.114545860372836
485,647,67223552,12.35432508095037
486,649,67223552,12.353816515639654
487,651,67223552,12.354252426199555
488,652,67223552,11.31241706923584
489,653,67223552,12.2713329099503
490,654,67223552,10.967447067570228
491,655,67223552,12.354034467074342
492,657,67223552,12.354252426199555
493,659,67223552,12.353017426169261
494,660,67223552,10.709958827307135
495,661,67223552,12.354034467074342
496,662,67223552,11.059077226183852
497,663,67223552,12.316370728454132
498,665,67223552,12.353746137131466
499,667,67223552,12.354761027401603
500,668,67223552,10.718483432271837
501,669,67223552,12.343871587917894
502,670,67223552,11.146570654033006
503,671,67223552,12.300072987799199
504,673,67223552,12.354543050330248
505,675,67223552,12.35309006639481
506,676,67223552,10.805206027449753
507,677,67223552,12.352869878341135
508,678,67223552,11.0700916157297
509,679,67223552,12.320704819978207
510,681,67223552,12.35417977230329
511,683,67223552,12.355487673194217
512,684,67223552,11.324371346979811
513,685,67223552,12.352291070897339
514,686,67223552,11.055992468770363
515,687,67223552,12.354034467074342
516,689,67223552,12.353235349408841
517,691,67223552,12.354688367523185
518,692,67223552,10.764950392086433
519,693,67223552,12.352726873809836
520,694,67223552,11.096170422361778
521,695,67223552,12.352944786798005
522,697,67223552,12.352581602755572
523,699,67223552,12.353164977522177
524,700,67223552,10.71859281018458
525,701,67223552,12.322147936415064
526,702,67223552,11.118016420452497
527,703,67223552,12.355342337197742
528,705,67223552,12.353816515639654
529,707,67223552,12.354543050330248
530,708,67223552,10.72154514788794
531,709,67223552,12.354470393015701
532,710,67223552,11.008138255696926
533,711,67223552,12.316731786280632
534,713,67223552,12.353160437427988
535,715,67223552,12.326920079495448
536,716,67223552,10.824579740426703
537,717,67223552,12.351419557316323
538,718,67223552,11.171466637019472
539,719,67223552,12.352288801170998
540,721,67223552,12.356505120914385
541,723,67223552,12.352944786798005
542,724,67223552,11.396806790930846
543,725,67223552,12.343218831943709
544,726,67223552,10.988731179195943
545,727,67223552,12.3048280444466
546,729,67223552,12.354107119261556
547,731,67223552,12.336984865877707
548,732,67223552,11.468857861408173
549,733,67223552,12.354543050330248
550,734,67223552,11.055701542749688
551,735,67223552,12.354252426199555
552,737,67223552,12.31571862140125
553,739,67223552,12.25508033927387
554,740,67223552,10.69861375763939
555,741,67223552,12.306053427270802
556,742,67223552,11.071725243352622
557,743,67223552,12.305188425826351
558,745,67223552,12.355126610382316
559,747,67223552,12.354254696647583
560,748,67223552,11.414949703519056
561,749,67223552,12.354833688134676
