idx,og Index,data (B),bandwidth (GB/s)
0,0,16785408,11.739820840070948
1,1,16785408,12.16171756809237
2,2,16785408,12.222654432415862
3,3,16785408,12.097495443279369
4,4,16785408,12.311586692807523
5,6,16785408,11.319029736259868
6,8,16785408,11.801893319383742
7,9,16785408,11.577604621824685
8,10,16785408,11.287123040435631
9,11,16785408,11.76140586899857
10,12,16785408,11.591428145250841
11,14,16785408,11.73561836151398
12,16,16785408,11.700018401726416
13,17,16785408,11.715951104804436
14,18,16785408,11.739295365661246
15,19,16785408,11.845602307948534
16,20,16785408,12.04692048436271
17,22,16785408,11.818645757642328
18,24,16785408,11.923419199754505
19,25,16785408,12.090245710173926
20,26,16785408,11.74323757073056
21,27,16785408,11.18268268601709
22,28,16785408,12.037805751758295
23,30,16785408,11.947045660306452
24,32,16785408,11.920709501110727
25,33,16785408,11.404672234901321
26,34,16785408,11.57710155323199
27,35,16785408,11.523176571140242
28,36,16785408,11.70158443340193
29,39,16785408,10.238226173600962
30,40,16785408,10.45266245290656
31,41,16785408,10.87502672528737
32,42,16785408,9.80054778971928
33,43,16785408,10.719240009349173
34,45,16785408,10.33037820512426
35,48,16785408,10.381080608043797
36,49,16785408,9.71955438793774
37,50,16785408,11.251050173034734
38,51,16785408,9.65266101610118
39,53,16785408,9.96703151191769
40,55,16785408,10.0726872088083
41,56,16785408,11.857384247616572
42,57,16785408,9.923292478463106
43,58,16785408,10.606959917598216
44,59,16785408,9.054633961091643
45,63,16785408,9.990576885991748
46,64,16785408,10.471853950353951
47,65,16785408,10.724931521203668
48,66,16785408,9.988484215186649
49,67,16785408,9.362682598551205
50,69,16785408,9.928175815232178
51,72,16785408,10.83929560820628
52,73,16785408,9.228435756309244
53,74,16785408,9.816871976713788
54,75,16785408,9.72658332005389
55,77,16785408,9.791583467938812
56,78,16785408,12.009959760278873
57,80,16785408,11.849616246957366
58,81,16785408,11.946501471835838
59,82,16785408,12.02814452913664
60,83,16785408,11.217837967164646
61,84,16785408,11.877790169094295
62,86,16785408,12.074651688755633
63,88,16785408,12.076606343859426
64,89,16785408,10.52416926289971
65,90,16785408,11.548037913244249
66,91,16785408,10.757932219944855
67,92,16785408,11.769586752752831
68,94,16785408,11.72748461525563
69,96,16785408,11.981156101711369
70,97,16785408,10.918261706680891
71,98,16785408,11.721457182281862
72,99,16785408,11.315367155695263
73,100,16785408,11.664893173440966
74,102,16785408,11.572504095263835
75,104,16785408,11.678657901914182
76,105,16785408,11.46424451542974
77,106,16785408,11.659189037502987
78,107,16785408,10.799349931608996
79,110,16785408,11.981712004762588
80,112,16785408,11.829848833923108
81,113,16785408,10.849608751352532
82,114,16785408,11.553124842985252
83,115,16785408,11.21185107603768
84,116,16785408,11.397981210933919
85,118,16785408,12.125179959013048
86,120,16785408,11.932912853819861
87,121,16785408,11.552115048973997
88,122,16785408,11.807737977996004
89,123,16785408,10.881336352503943
90,124,16785408,11.512301780265439
91,126,16785408,11.819178359987157
92,128,16785408,11.609121359226659
93,129,16785408,10.077137910249915
94,130,16785408,11.483067248707545
95,131,16785408,10.31655599507325
96,132,16785408,11.516092979985057
97,134,16785408,12.199344878034953
98,136,16785408,11.833309834133246
99,137,16785408,10.684516834149903
100,138,16785408,11.492375916509252
101,139,16785408,10.09711765427732
102,142,16785408,11.727222424056116
103,144,16785408,11.78942636721713
104,145,16785408,10.301569347791798
105,146,16785408,11.231055706957196
106,147,16785408,10.574024879379673
107,148,16785408,11.494650341030487
108,150,16785408,11.703926106337537
109,152,16785408,11.871875972501202
110,153,16785408,11.711773866738115
111,154,16785408,11.744552227527414
112,155,16785408,10.569763465966945
113,156,16785408,11.63307330217395
114,158,16785408,11.890453228833064
115,160,16785408,12.051625799114298
116,161,16785408,10.392186701915248
117,162,16785408,11.439991766950167
118,163,16785408,10.441004626027047
119,164,16785408,11.638235440945625
120,166,16785408,12.213547430851609
121,168,16785408,11.968589366503737
122,169,16785408,10.162061107707359
123,170,16785408,10.876605207943195
124,171,16785408,9.917851343973567
125,172,16785408,11.439750069516005
126,174,16785408,11.86945822561393
127,176,16785408,11.919625966471052
128,177,16785408,10.864890266304707
129,178,16785408,11.455481674745934
130,179,16785408,11.443493626977764
131,180,16785408,11.522670311361962
132,182,16785408,11.67164162499235
133,184,16785408,11.972951844010888
134,185,16785408,9.156108260370807
135,186,16785408,11.090707026124141
136,187,16785408,9.002419894623028
137,188,16785408,11.779101427633094
138,190,16785408,12.180365162607732
139,192,16785408,12.041398159938305
140,193,16785408,9.844692821965243
141,194,16785408,11.70158443340193
142,195,16785408,11.775399448881206
143,196,16785408,11.895306836180414
144,198,16785408,12.088573928637016
145,200,16785408,11.522172005337756
146,201,16785408,10.948342819274878
147,202,16785408,11.588867225256973
148,203,16785408,10.801351342655453
149,204,16785408,11.649349567766544
150,206,16785408,12.246625055175961
151,208,16785408,12.056611905049216
152,209,16785408,11.385611135040172
153,210,16785408,11.662550885630571
154,211,16785408,11.659966545705124
155,212,16785408,11.863552321340729
156,214,16785408,12.003913244961126
157,216,16785408,11.884518003704397
158,217,16785408,11.083683906433135
159,218,16785408,11.67086255903081
160,219,16785408,11.299279919813078
161,220,16785408,11.515848056246192
162,222,16785408,11.488600313884065
163,224,16785408,12.232630778839265
164,225,16785408,11.858456495323141
165,226,16785408,11.858188415216544
166,227,16785408,11.317076064949067
167,228,16785408,12.107259707211236
168,230,16785408,11.617614325343434
169,232,16785408,11.815983465768623
170,233,16785408,11.638227371530197
171,234,16785408,11.822108531150164
172,235,16785408,11.06708063640925
173,236,16785408,11.13756902338136
174,238,16785408,11.78465876220913
175,240,16785408,11.823707418782227
176,241,16785408,9.959845915405374
177,242,16785408,11.302437388644913
178,243,16785408,9.768795089008234
179,244,16785408,11.182213351577962
180,246,16785408,12.15608071702114
181,248,16826368,11.397808411813198
182,249,16826368,11.961215402375982
183,250,16826368,11.535591863149985
184,251,16826368,11.764510772479225
185,252,16826368,12.188577641627726
186,254,16826368,11.180184675654827
187,256,16826368,11.780596956407283
188,257,16826368,9.139524891977697
189,258,16826368,10.194165957828362
190,259,16826368,8.386874375085357
191,260,16826368,11.209500353411974
192,262,16826368,11.517391729918758
193,264,16826368,11.816867144968004
194,265,16826368,11.121297883787424
195,266,16826368,11.426043012753347
196,267,16826368,10.730698270919653
197,268,16826368,11.646213679052986
198,270,16826368,11.572404003279212
199,272,16826368,11.870219142055747
200,273,16826368,10.999862063465187
201,274,16826368,11.157876588334684
202,275,16826368,10.719985525214287
203,276,16826368,11.551295596448051
204,278,16826368,11.647253617450147
205,280,16826368,11.80227932058066
206,281,16826368,10.269623915139826
207,282,16826368,11.315883518755266
208,283,16826368,11.517644006760118
209,284,16826368,11.56756697300181
210,286,16826368,11.478672552546898
211,288,16826368,11.832556046243425
212,289,16826368,11.253642840757013
213,290,16826368,11.568577005395023
214,291,16826368,10.966589977384265
215,292,16826368,11.460417268303846
216,294,16826368,11.921351689895767
217,296,16826368,11.6985611070632
218,297,16826368,11.479173730417918
219,298,16826368,11.494991119005329
220,299,16826368,10.852731537827966
221,300,16826368,11.305421794006094
222,302,16826368,11.915408539590638
223,304,16826368,11.867807952512878
224,305,16826368,11.86754847314273
225,306,16826368,11.78481314973165
226,307,16826368,10.492792520884104
227,312,16826368,11.739566763226783
228,313,16826368,9.72255443465559
229,314,16826368,11.653440654007868
230,315,16826368,10.816565323850243
231,318,16826368,11.805194003378853
232,320,16826368,11.68010295702974
233,321,16826368,11.123893237817766
234,322,16826368,11.653440654007868
235,323,16826368,10.157734221627665
236,326,16826368,11.833354900052322
237,328,16826368,11.612272052206462
238,329,16826368,11.269312323104598
239,330,16826368,11.483694138844148
240,331,16826368,10.738155803876271
241,334,16826368,11.892501936570941
242,336,16826368,11.739828867095708
243,337,16826368,11.514121015377372
244,338,16826368,11.33882089893198
245,339,16826368,11.093384529068897
246,340,16826368,11.370450584626779
247,344,16826368,11.831224862888483
248,345,16826368,11.825105275289964
249,346,16826368,11.951165081712332
250,347,16826368,11.400773902243856
251,350,16826368,11.857913923829404
252,352,16826368,11.865933259992666
253,353,16826368,10.254803062843882
254,354,16826368,11.507561545916055
255,355,16826368,11.344692160763973
256,358,16826368,12.184341154090962
257,360,16826368,11.790370590444585
258,361,16826368,11.530532698137723
259,362,16826368,12.266199726338366
260,363,16826368,12.072444562747572
261,364,16826368,12.309559708398718
262,366,16826368,12.310136069899793
263,368,16826368,11.596905721548021
264,369,16826368,10.955401306207383
265,370,16826368,11.902731640512261
266,371,16826368,12.299473120983352
267,372,16826368,12.232243243734437
268,374,16826368,12.313883735651741
269,376,16826368,11.392869354555863
270,377,16826368,10.462734242040419
271,378,16826368,12.160662353505744
272,379,16826368,11.833887529186711
273,380,16826368,12.311288954836424
274,382,16826368,12.314172112149752
275,384,16826368,11.449928243876913
276,385,16826368,11.181848932045803
277,386,16826368,12.182082898035748
278,387,16826368,12.30120852746218
279,388,16826368,12.257907255435475
280,389,16826368,12.170522461739205
281,390,16826368,12.171367603285459
282,392,16826368,11.247624821773899
283,393,16826368,10.785289868356449
284,394,16826368,12.068011432300912
285,395,16826368,12.059154931596288
286,396,16826368,12.30696674938909
287,398,16826368,12.16067114220071
288,400,16826368,11.647503552805453
289,401,16826368,11.041431036858649
290,402,16826368,12.30869526733483
291,403,16826368,11.941123162050399
292,404,16826368,12.309847882402774
293,406,16826368,12.166861537549341
294,408,16826368,12.301784107167792
295,409,16826368,11.792485941275741
296,410,16826368,12.203853420608874
297,411,16826368,12.031553356405343
298,412,16826368,12.255050381823942
299,414,16826368,12.091599805975244
300,416,16826368,11.965851205981515
301,417,16826368,12.147458517906749
302,418,16826368,12.02880960568014
303,419,16826368,11.69387811834563
304,420,16826368,11.725430513047792
305,422,16826368,12.026608629149557
306,424,16826368,11.845350664271272
307,425,16826368,11.433496435689179
308,426,16826368,11.978381579921523
309,427,16826368,11.968566307223945
310,428,16826368,12.015058124589414
311,430,16826368,11.954960638872311
312,432,16826368,11.874508121291504
313,433,16826368,11.484187917227748
314,434,16826368,11.951165081712332
315,435,16826368,12.066341194761089
316,436,16826368,12.008746938286125
317,438,16826368,12.037337392906812
318,440,16826368,11.8613829001314
319,441,16826368,11.684263739438146
320,442,16826368,12.094102798344267
321,443,16826368,10.79170212834187
322,444,16826368,12.004634518027247
323,446,16826368,11.98603535610768
324,448,16826368,12.092712119110537
325,449,16826368,11.998069056197737
326,450,16826368,11.93921676590962
327,451,16826368,12.028259286026264
328,452,16826368,11.844016600688128
329,454,16826368,11.95986361533098
330,456,16826368,12.022750267229897
331,457,16826368,10.992726118161709
332,458,16826368,11.67570208112444
333,459,16826368,11.793279393541804
334,460,16826368,11.861115340585473
335,462,16826368,11.988212964598995
336,464,16826368,11.847218858253303
337,465,16826368,11.837084311176394
338,466,16826368,11.950061680741618
339,467,16826368,11.860312734367511
340,468,16826368,11.83894989840087
341,470,16826368,12.11918983410484
342,472,16826368,11.888737529321991
343,473,16826368,11.536849438014274
344,474,16826368,11.827765187513707
345,475,16826368,11.438968462285745
346,476,16826368,11.826692766447959
347,478,16826368,11.985488943261426
348,480,16826368,11.916488671580654
349,481,16826368,11.665082331800763
350,482,16826368,11.995323451748858
351,483,16826368,11.730138812204766
352,484,16826368,11.858707847747276
353,486,16826368,11.893846945526722
354,488,16826368,11.972654048669417
355,489,16826368,10.860808352815576
356,490,16826368,12.013136626628514
357,491,16826368,11.30566487022555
358,492,16826368,11.717069529321977
359,494,16826368,11.93054822882101
360,496,16826368,11.956600181768183
361,497,16826368,11.80068182407929
362,498,16826368,11.922432899696737
363,499,16826368,11.741926119457146
364,500,16826368,11.80598916673683
365,502,16826368,11.839483031336721
366,504,16834560,11.420190556303655
367,505,16834560,11.784220282128677
368,506,16834560,11.247086270446214
369,507,16834560,11.851651600912394
370,508,16834560,12.04319782980696
371,510,16834560,11.345327503383132
372,512,16834560,11.704777426119266
373,513,16834560,10.152285243552663
374,514,16834560,10.552029414825002
375,515,16834560,10.015438516331809
376,516,16834560,11.326511457669632
377,518,16834560,11.772353721098064
378,520,16834560,11.546274094518
379,521,16834560,11.835661742218385
380,522,16834560,11.49379550955338
381,523,16834560,10.698377312110994
382,524,16834560,11.716508076145722
383,526,16834560,11.686316759872714
384,528,16834560,11.92877833646057
385,529,16834560,11.141093543291245
386,530,16834560,11.526533630490823
387,531,16834560,10.524158686080554
388,532,16834560,11.334808771021452
389,534,16834560,11.627683381682553
390,536,16834560,11.542980642117794
391,537,16834560,11.641569962235655
392,538,16834560,11.381647045460845
393,539,16834560,10.460959127557441
394,540,16834560,11.226684930374061
395,542,16834560,11.677497044999251
396,544,16834560,11.644154737465346
397,545,16834560,11.701645085076345
398,546,16834560,11.432855769074047
399,547,16834560,11.217827449511793
400,548,16834560,11.342384570450278
401,550,16834560,11.742136364397275
402,552,16834560,11.864213748893537
403,553,16834560,11.642858180263957
404,554,16834560,11.298771901800468
405,555,16834560,10.821838378513895
406,556,16834560,12.27360315308977
407,558,16834560,12.250167548250621
408,559,16834560,12.29855700952058
409,560,16834560,12.006641447424727
410,561,16834560,11.837517649507502
411,562,16834560,12.311517694749751
412,563,16834560,12.098590820497783
413,564,16834560,11.890501405919908
414,566,16834560,12.045128017263584
415,568,16834560,11.720684642333978
416,569,16834560,11.040778823186832
417,570,16834560,12.183488788147221
418,571,16834560,12.086647047040435
419,572,16834560,12.295691538429514
420,574,16834560,12.313246649517149
421,576,16834560,11.425399051059669
422,577,16834560,11.297081069328378
423,578,16834560,12.30748535455038
424,579,16834560,12.302592491093451
425,580,16834560,12.210645117536425
426,582,16834560,12.286502302274103
427,584,16834560,12.197613016537309
428,585,16834560,12.307197431321704
429,586,16834560,12.12899507190409
430,587,16834560,12.171095297069968
431,588,16834560,12.307773291251127
432,590,16834560,12.314399555836125
433,592,16834560,12.137110030626546
434,593,16834560,12.089980243299706
435,594,16834560,12.120611698297958
436,595,16834560,11.961052912789674
437,596,16834560,12.068615474613306
438,598,16834560,12.309213176869042
439,600,16834560,11.670243740121455
440,601,16834560,11.060284230782623
441,602,16834560,12.305182345859583
442,603,16834560,12.302592491093451
443,604,16834560,12.313823075690847
444,606,16834560,12.136558779319369
445,607,16834560,12.132071881972431
446,608,16834560,11.64827987047134
447,609,16834560,11.65111759527382
448,610,16834560,11.788973607695281
449,611,16834560,11.862341103187802
450,612,16834560,12.179548675697204
451,614,16834560,12.190273160495096
452,616,16834560,12.060047496409114
453,617,16834560,12.09776485527217
454,618,16834560,12.086360686244666
455,619,16834560,11.588239505261825
456,620,16834560,11.95155076045371
457,622,16834560,12.06031533157958
458,624,16834560,12.0189852812666
459,625,16834560,11.677756258358814
460,626,16834560,11.911222809013568
461,627,16834560,11.070991009475858
462,628,16834560,11.692810348563903
463,630,16834560,11.98040101766684
464,632,16834560,11.832458966616622
465,633,16834560,11.55920479381369
466,634,16834560,11.861538721696439
467,635,16834560,11.62716137208925
468,636,16834560,11.867693088571187
469,638,16834560,12.16602010788185
470,640,16834560,9.898233970145181
471,641,16834560,11.210417070378753
472,642,16834560,9.94312748621599
473,643,16834560,10.018686961262048
474,644,16834560,10.019641033332618
475,646,16834560,10.708612532107594
476,648,16834560,10.14504142491087
477,649,16834560,10.092879702439621
478,650,16834560,10.236637600788063
479,651,16834560,10.000778221674365
480,654,16834560,11.102760098928277
481,656,16834560,10.071624975171764
482,657,16834560,9.945759191131943
483,658,16834560,9.975935057246831
484,659,16834560,9.73304679789712
485,662,16834560,10.085134297242167
486,664,16834560,10.775732173650326
487,665,16834560,10.102570626825832
488,666,16834560,9.970830043692745
489,667,16834560,9.699847137706858
490,668,16834560,9.964981069888692
491,672,16834560,10.018686961262048
492,673,16834560,10.051995882365587
493,674,16834560,9.989579946024595
494,675,16834560,10.048347933215389
495,680,16834560,10.020589322480934
496,681,16834560,9.817873253687996
497,682,16834560,10.098885884106032
498,683,16834560,9.92456309557778
499,686,16834560,10.040293433530149
500,688,16834560,11.798218902453126
501,689,16834560,11.894265097491717
502,690,16834560,11.934461187706653
503,691,16834560,12.030529114141155
504,692,16834560,12.017887023912186
505,694,16834560,11.926614864060667
506,696,16834560,11.930680474064708
507,697,16834560,11.725648183748183
508,698,16834560,11.898830088605662
509,699,16834560,11.515936324476742
510,700,16834560,11.793995168784294
511,702,16834560,11.974938398766268
512,704,16834560,11.928237394779355
513,705,16834560,11.979301275738203
514,706,16834560,12.081095802328443
515,707,16834560,12.006915479376238
516,708,16834560,12.034106700674242
517,710,16834560,12.190555638831501
518,712,16834560,11.94258894570467
519,713,16834560,11.80696527462169
520,714,16834560,11.948284966414754
521,715,16834560,11.619465166231372
522,716,16834560,11.935815045688388
523,718,16834560,11.980665326827713
524,720,16834560,11.86796081461387
525,721,16834560,11.277948572282252
526,722,16834560,11.955081521797023
527,723,16834560,10.783456010228377
528,724,16834560,12.063919303277014
529,726,16834560,12.165738765457794
530,728,16834560,11.7450200092651
531,729,16834560,12.130402169190207
532,730,16834560,11.909343720354086
533,731,16834560,12.066400986266808
534,732,16834560,11.894256693741204
535,734,16834560,11.85326214383836
536,736,16834560,11.935815045688388
537,737,16834560,11.526036446094944
538,738,16834560,11.920399249990087
539,739,16834560,11.905831499261657
540,740,16834560,12.063642663200234
541,742,16834560,11.533870110223791
542,744,16834560,12.253306149959348
543,745,16834560,11.996237493942935
544,746,16834560,11.96867232779165
545,747,16834560,12.022015109500675
546,748,16834560,11.970859599159494
547,750,16834560,12.150004330379053
548,752,16834560,11.894802962226036
549,753,16834560,10.780590203911212
550,754,16834560,11.899915104415914
551,755,16834560,9.717400113367821
552,756,16834560,11.781309113659887
553,758,16834560,12.075549654509029
554,760,16842752,11.329583880717092
555,761,16842752,11.452847342305985
556,762,16842752,11.76281546292106
557,763,16842752,11.485594889336236
558,764,16842752,12.077267541623554
559,766,16842752,12.1343464769676
560,768,16842752,11.907313459004248
561,769,16842752,11.799205295044022
562,770,16842752,12.291045859856808
