idx,og Index,data (B),bandwidth (GB/s)
0,0,50921472,12.178732319584423
1,2,50921472,12.203573300446308
2,4,50921472,12.152782696770585
3,6,50921472,12.241315215813053
4,8,50921472,12.218850271100903
5,10,50921472,12.236232233706241
6,12,50921472,12.241412327745927
7,14,50921472,12.327708071268168
8,18,51019776,12.128448968530554
9,20,51019776,11.363748458692971
10,22,51019776,12.257874914348264
11,24,51019776,11.361804927063217
12,26,51019776,12.256367237159585
13,28,51019776,11.05870938962679
14,30,51019776,12.273066586609934
15,32,51019776,12.071789367882179
16,34,51019776,12.149706376837823
17,36,51019776,11.800870196565613
18,38,51019776,12.147207082457566
19,40,51019776,11.489698410982596
20,42,51019776,12.194963472314777
21,44,51019776,11.342322901033018
22,46,51019776,12.175871717010688
23,48,51019776,11.751552388728872
24,50,51019776,12.18182564870536
25,52,51019776,12.13407666572565
26,54,51019776,12.163888494179332
27,56,51019776,12.112873866727888
28,58,51019776,12.238491881109079
29,60,51019776,12.225728874221572
30,62,51019776,12.191047115664919
31,64,51019776,12.130848250078225
32,66,51019776,12.306035217798724
33,68,51019776,12.153040369614121
34,70,51019776,12.277792163162996
35,72,51019776,12.229946048489959
36,75,51019776,12.232388591749071
37,77,51019776,12.307175124248257
38,78,51019776,12.268722267804634
39,82,51118080,12.288106339381784
40,84,51118080,11.58287310907366
41,86,51118080,12.228655744669856
42,88,51118080,11.466882972385129
43,90,51118080,12.232776073399414
44,92,51118080,11.200356531781877
45,94,51118080,12.148950010374053
46,96,51118080,12.096969656811321
47,98,51118080,12.185556379027947
48,100,51118080,11.735360437401944
49,102,51118080,12.174412149338396
50,104,51118080,11.364341305863437
51,106,51118080,12.191787454246287
52,108,51118080,11.428162625821821
53,110,51118080,12.177010645994192
54,112,51118080,11.647141250815979
55,114,51118080,12.295675930382501
56,116,51118080,12.254265421249004
57,118,51118080,12.251915751972795
58,120,51118080,12.240931265259833
59,122,51118080,12.259061542224844
60,124,51118080,12.12313411863141
61,126,51118080,12.287917292864375
62,129,51118080,12.341459881505946
63,131,51118080,12.326032922739492
64,133,51118080,12.341844262384138
65,135,51118080,12.26772286960303
66,137,51118080,12.344320964400076
67,138,51118080,12.342797868710871
68,140,51118080,12.340697150041668
69,142,51118080,12.28394865924027
70,146,51216384,12.254236168866779
71,148,51216384,11.611293902778813
72,150,51216384,12.20126795418746
73,152,51216384,11.398031931430722
74,154,51216384,12.283485052998754
75,156,51216384,11.257570382366788
76,158,51216384,12.252919843452036
77,160,51216384,12.106481206800247
78,162,51216384,12.292541870076755
79,164,51216384,11.974328892247279
80,166,51216384,12.194295847551492
81,168,51216384,11.446045583597343
82,170,51216384,12.180279918884358
83,172,51216384,11.516877621949904
84,174,51216384,12.181487968444817
85,176,51216384,11.677969011751074
86,178,51216384,12.26588139046767
87,180,51216384,11.83933794888984
88,183,51216384,12.347262713672508
89,184,51216384,12.17675853295125
90,186,51216384,12.310979707803915
91,189,51216384,12.32301771155847
92,191,51216384,12.294619271988086
93,193,51216384,12.344402784700536
94,194,51216384,12.291975427753506
95,196,51216384,12.310411565008465
96,198,51216384,12.304165453460449
97,200,51216384,12.336125094538675
98,202,51216384,12.274159177510963
99,205,51216384,12.344497995142836
100,206,51216384,12.321120401386068
101,210,51314688,12.233080032459638
102,212,51314688,11.443953612845673
103,214,51314688,12.191689738319582
104,216,51314688,11.389816423409428
105,218,51314688,12.15620012617035
106,220,51314688,11.227768980711925
107,222,51314688,12.334798983499658
108,224,51314688,12.01736187385335
109,226,51314688,12.163026072149476
110,228,51314688,11.85951810982422
111,230,51314688,12.150676407157045
112,232,51314688,11.38439878627794
113,234,51314688,12.196792757606671
114,236,51314688,11.413000557586795
115,238,51314688,12.183075595357511
116,240,51314688,11.764763819468756
117,242,51314688,12.17364469964614
118,244,51314688,11.95705918168619
119,247,51314688,12.188819899381945
120,249,51314688,12.267331191985916
121,251,51314688,12.2980952755279
122,253,51314688,12.329677617156076
123,254,51314688,12.219094955196379
124,256,51314688,12.229905022525898
125,258,51314688,12.265736044249184
126,260,51314688,12.269489993544221
127,262,51314688,12.327876666189388
128,264,51314688,12.313960754425757
129,266,51314688,12.2559865179746
130,268,51314688,12.3428690183084
131,270,51314688,12.29074304897549
132,274,51412992,12.284441504994252
133,276,51412992,11.538999255989955
134,278,51412992,12.167312704458004
135,280,51412992,11.460315422310671
136,282,51412992,12.143861305853255
137,284,51412992,11.243686209845142
138,286,51412992,12.193260348786165
139,288,51412992,11.988368158825791
140,290,51412992,12.215326979166964
141,292,51412992,11.909806706816202
142,294,51412992,12.162338969570847
143,296,51412992,11.426978279114095
144,298,51412992,12.14275993760104
145,301,51412992,12.292806651931778
146,303,51412992,12.076133701163032
147,305,51412992,12.148911801103097
148,307,51412992,11.990694400617947
149,309,51412992,12.13166562724093
150,310,51412992,12.340867521379831
151,312,51412992,12.309948426209255
152,314,51412992,12.308911027625324
153,316,51412992,12.214952598240778
154,318,51412992,12.198632769680628
155,320,51412992,12.290737802971407
156,322,51412992,12.324490388847284
157,325,51412992,12.277776344936482
158,326,51412992,12.293838397919853
159,328,51412992,12.333762267073146
160,330,51412992,12.320615472508006
161,332,51412992,12.304857419390045
162,334,51412992,12.270646888709251
163,338,51511296,12.294296721149882
164,340,51511296,11.359469084431304
165,342,51511296,12.189654034091836
166,344,51511296,11.456157780083334
167,346,51511296,12.258628419883276
168,348,51511296,11.29767968034797
169,350,51511296,12.24389336029727
170,352,51511296,11.961040173315778
171,355,51511296,12.348434274229508
172,356,51511296,12.01568087378464
173,359,51511296,12.3350922749926
174,361,51511296,12.333107635081362
175,363,51511296,12.29336074986898
176,364,51511296,12.338871353435454
177,366,51511296,12.321021631208643
178,368,51511296,12.305765862356628
179,370,51511296,12.334808715899937
180,372,51511296,12.316967792334118
181,374,51511296,12.305856996208956
182,376,51511296,12.310753750013145
183,378,51511296,12.25498870885011
184,380,51511296,12.280696618161002
185,382,51511296,12.280324797001875
186,384,51511296,12.333577157381919
187,386,51511296,12.328384871434766
188,388,51511296,12.296456747328852
189,390,51511296,12.238494239784346
190,392,51511296,12.27667219273819
191,394,51511296,12.276294763795113
192,396,51511296,12.202405597188614
193,398,51511296,12.294769162029095
194,402,51609600,12.315689775846026
195,404,51609600,11.691364610977644
196,406,51609600,12.213656635266526
197,408,51609600,11.542507890386252
198,410,51609600,12.225507281943797
199,412,51609600,11.198828594752024
200,414,51609600,12.199893530815075
201,416,51609600,11.903903546495817
202,418,51609600,12.135631369286527
203,420,51609600,12.055889678293765
204,422,51609600,12.323974267743461
205,424,51609600,12.316162959300266
206,426,51609600,12.293816145876633
207,428,51609600,12.308264678631604
208,430,51609600,12.273701138174028
209,432,51609600,12.31268106234855
210,434,51609600,12.286043008863588
211,436,51609600,12.316727300150541
212,806,51609600,12.26297185838807
213,808,51609600,12.32086738050743
214,810,51609600,12.297662449067124
215,812,51609600,12.314094151893297
216,814,51609600,12.300288574013466
217,816,51609600,12.289135282021292
218,818,51609600,12.306104623921717
219,820,51609600,12.238030954087703
220,822,51609600,12.33075837260443
221,824,51609600,12.317006550426253
222,826,51609600,12.295596922384187
223,828,51609600,12.303197378094657
224,830,51609600,12.31682136198705
225,834,51707904,12.307666527978643
226,836,51707904,11.736520215619352
227,838,51707904,12.210566783597836
228,840,51707904,11.584474427541116
229,842,51707904,12.236086773486916
230,844,51707904,11.370487079427754
231,846,51707904,12.230715027926474
232,848,51707904,12.00018380450256
233,850,51707904,12.207430379295586
234,852,51707904,11.909173383265909
235,854,51707904,12.322117154698049
236,856,51707904,12.305414149539093
237,858,51707904,12.336230910393963
238,860,51707904,12.33839742751524
239,862,51707904,12.32719626569272
240,864,51707904,12.338488696975576
241,866,51707904,12.324469652116958
242,868,51707904,12.2944598504585
243,870,51707904,12.288759286457813
244,872,51707904,12.302700089365334
245,874,51707904,12.257066054776207
246,876,51707904,12.316484798016706
247,878,51707904,12.314325968729728
248,880,51707904,12.32117758155337
249,882,51707904,12.309726315909758
250,884,51707904,12.22997446762213
251,886,51707904,12.290345329681497
252,888,51707904,12.286046728787653
253,890,51707904,12.328510054306296
254,892,51707904,12.300733363719669
255,894,51707904,12.332558989275892
