idx,og Index,data (B),bandwidth (GB/s)
0,1,33570816,12.283930835502881
1,6,33570816,11.550354295151344
2,8,33570816,11.470159177475985
3,10,33570816,12.204902128662063
4,12,33570816,11.514730230182677
5,14,33570816,12.276891480329658
6,16,33570816,11.544380478676084
7,22,33570816,12.052902230253306
8,24,33570816,12.21285873263657
9,26,33570816,12.202772655548856
10,28,33570816,11.561050297783652
11,30,33570816,12.219971614827994
12,32,33570816,12.259957366915865
13,38,33570816,12.204760140665803
14,40,33570816,11.383657574882097
15,42,33570816,12.108827470535722
16,44,33570816,12.221542010210946
17,46,33570816,11.46101165806116
18,48,33570816,11.410033039688752
19,54,33570816,11.545142749451731
20,56,33570816,11.37526798321096
21,58,33570816,11.525225795554261
22,60,33570816,11.300032987081181
23,62,33570816,12.147806663147012
24,64,33570816,11.440264663425166
25,70,33570816,12.261681369125712
26,72,33570816,11.311973754971824
27,74,33570816,12.219686940467875
28,76,33570816,11.544380478676084
29,78,33570816,12.246361474474234
30,80,33570816,11.409036471325509
31,86,33570816,11.475307154408348
32,88,33570816,11.478320451736323
33,90,33570816,12.213427458479176
34,92,33570816,11.524090324427696
35,94,33570816,11.486988572828544
36,96,33570816,12.302806598864226
37,102,33570816,11.558753502919574
38,104,33570816,11.328097182385692
39,106,33570816,12.263831453679863
40,108,33570816,12.31826361103854
41,110,33570816,11.514098339739617
42,112,33570816,11.319663297937625
43,118,33587200,11.906128356565631
44,120,33587200,12.23662557212542
45,122,33587200,12.183644116521478
46,124,33587200,11.907204689823189
47,126,33587200,12.010484571730991
48,128,33587200,12.062803637890346
49,134,33587200,12.03831506886139
50,136,33587200,12.10244443635706
51,138,33587200,11.800376772224256
52,140,33587200,11.90571897892239
53,142,33587200,11.942162262679071
54,144,33587200,12.039277339395412
55,150,33587200,12.080018903802449
56,152,33587200,12.006916617721027
57,154,33587200,11.8844196034611
58,156,33587200,12.041077155000117
59,158,33587200,11.917344428256857
60,160,33587200,12.055875871916369
61,166,33587200,12.126214121519922
62,168,33587200,11.962574215814424
63,170,33587200,11.98717026734082
64,172,33587200,12.062249123627351
65,174,33587200,12.072932486228556
66,176,33587200,11.642002327901332
67,182,33587200,11.5273086827193
68,184,33587200,11.749651049300875
69,186,33587200,11.521235108016725
70,188,33587200,11.966529402920518
71,191,33587200,12.326301727807872
72,192,33587200,11.8044909306257
73,198,33587200,11.582516012206279
74,200,33587200,12.0034794765918
75,202,33587200,11.615972099975549
76,204,33587200,12.062110503027272
77,206,33587200,11.560446141693529
78,208,33587200,12.005955221453096
79,214,33587200,11.70640577457278
80,216,33587200,11.919920134490905
81,218,33587200,11.756231251990746
82,220,33587200,11.773242261576351
83,222,33587200,11.795602637321883
84,224,33587200,12.01874063585476
85,230,33587200,11.672812868063977
86,232,33587200,11.77297402263726
87,234,33587200,11.675543693255568
88,236,33587200,12.202624782149185
89,238,33587200,11.704443563953442
90,240,33587200,12.159085519997191
91,246,33587200,11.490711385305511
92,248,33587200,12.229216245423219
93,250,33587200,11.548612744349683
94,252,33587200,12.134906317867113
95,254,33587200,11.907073831075621
96,256,33587200,12.132521733979058
97,262,33587200,11.741629065733784
98,264,33587200,12.163171741716566
99,266,33587200,11.490208219656086
100,268,33587200,12.232209192220846
101,270,33587200,11.582004774570018
102,272,33587200,12.20063896138806
103,278,33587200,11.749519520380941
104,280,33587200,12.194831487435989
105,282,33587200,11.81498422485448
106,284,33587200,12.231349460832567
107,286,33587200,11.88159441012641
108,288,33587200,12.212710131394845
109,294,33587200,11.896138302808346
110,296,33587200,12.15655062508845
111,298,33587200,11.697794891548675
112,300,33587200,12.148530426123797
113,302,33587200,11.939441120744508
114,304,33587200,12.211147209125786
115,310,33587200,11.694271835972685
116,312,33587200,12.129432812363447
117,314,33587200,11.595567838345897
118,316,33587200,12.23149645297091
119,318,33587200,12.245619702252412
120,320,33587200,11.987444077427
121,326,33587200,11.717775872138256
122,328,33587200,12.090037432206096
123,330,33587200,11.72340373546669
124,332,33587200,12.093519975774937
125,334,33587200,12.161339647570554
126,336,33587200,11.612373688918023
127,342,33587200,11.925337400855046
128,344,33587200,11.955216347300402
129,346,33587200,12.182517228871962
130,348,33587200,11.945424172597495
131,350,33587200,12.045909536608058
132,352,33587200,11.99634971971062
133,358,33587200,11.904638694754363
134,360,33587200,12.06238341537204
135,362,33587200,11.652726059700653
136,364,33587200,12.130418467510413
137,366,33587200,11.83470899657332
138,368,33587200,12.039419751241052
139,374,33587200,11.502422422381285
140,376,33587200,12.018327778105784
141,378,33587200,11.748467395022768
142,380,33587200,12.176153124174126
143,382,33587200,11.732445798847406
144,384,33587200,12.116695051943072
145,390,33587200,12.228218921933843
146,392,33587200,12.037896550760147
147,394,33587200,11.70640169445034
148,396,33587200,12.082521978964802
149,398,33587200,12.268812773779153
150,400,33587200,12.090037432206096
151,406,33587200,11.54950625957023
152,408,33587200,11.922082218465967
153,410,33587200,11.70105509883147
154,412,33587200,12.23620206754043
155,414,33587200,12.210010789619862
156,416,33587200,12.117254583492823
157,422,33587200,12.14389198808722
158,424,33587200,12.138976301542996
159,426,33587200,12.155142806787326
160,428,33587200,12.082104727737882
161,430,33587200,12.142346629088172
162,432,33587200,12.195252133076215
163,438,33587200,11.725892188208055
164,440,33587200,12.143189503418201
165,442,33587200,12.171211290491495
166,444,33587200,11.974861746379165
167,446,33587200,11.614301131823106
168,448,33587200,12.249768770442298
169,454,33587200,11.60364797421903
170,456,33587200,11.619315479124829
171,458,33587200,11.672687110458057
172,460,33587200,11.821508844521
173,462,33587200,12.19355201751313
174,464,33587200,11.826703747183926
175,470,33587200,12.252910354408224
176,472,33587200,11.758338473732154
177,474,33587200,12.116695051943072
178,476,33587200,12.178272281587738
179,478,33587200,12.101467681992027
180,480,33587200,11.781171143931683
181,486,33587200,12.287767731219715
182,488,33587200,11.81246612732994
183,490,33587200,12.166277873567381
184,492,33587200,11.799713466847383
185,494,33587200,12.00567627367646
186,496,33587200,11.85850518830786
187,502,33587200,12.261641955761682
188,504,33587200,12.242191808383339
189,506,33587200,12.188029914146878
190,508,33587200,11.823639534449827
191,510,33587200,12.239479419817075
192,512,33587200,12.227791547375993
193,912,33603584,12.091199660906808
194,913,33603584,11.865898572924767
195,914,33603584,11.552851926456063
196,916,33603584,12.155586487902141
197,918,33603584,11.515857803920252
198,924,33603584,12.177576514859407
199,926,33603584,12.265764937086256
200,928,33603584,12.097746567000508
201,930,33603584,11.553487457379571
202,931,33603584,12.34434703899516
203,932,33603584,12.116730807576909
204,934,33603584,12.118968165495712
205,940,33603584,12.216251116068182
206,942,33603584,11.5011012156668
207,944,33603584,11.913418538280183
208,946,33603584,12.291320034763169
209,948,33603584,11.506141946679513
210,950,33603584,11.570549755976963
211,956,33603584,11.432854792372922
212,958,33603584,11.549802351027736
213,960,33603584,11.56201430096154
214,962,33603584,11.506394099219053
215,964,33603584,12.170656417362633
216,966,33603584,11.532298488572058
217,972,33603584,12.057186590537482
218,974,33603584,11.46606458049769
219,976,33603584,12.067301066082614
220,978,33603584,11.54751622579447
221,980,33603584,12.191997677962412
222,982,33603584,11.616628536384862
223,988,33603584,11.658669186891085
224,990,33603584,11.509929337941381
225,992,33603584,11.965277335161167
226,994,33603584,11.640063874965794
227,996,33603584,11.554377318150575
228,998,33603584,12.269773314555767
229,1004,33603584,11.566594968310566
230,1006,33603584,11.49694593624597
231,1008,33603584,12.040596848924901
232,1010,33603584,12.175454221008028
233,1012,33603584,11.516236675918655
234,1014,33603584,11.424897977362756
235,1020,33619968,12.163484331449114
236,1022,33619968,12.116207587376788
237,1024,33619968,12.144779491847782
238,1026,33619968,11.936293787902295
239,1028,33619968,12.022206416688928
240,1030,33619968,11.991602303588282
241,1036,33619968,11.971925416471704
242,1038,33619968,12.035979091314934
243,1040,33619968,11.988733005098961
244,1042,33619968,12.042739227881297
245,1044,33619968,11.910714197145536
246,1046,33619968,11.922338057118054
247,1052,33619968,11.890229242564798
248,1054,33619968,11.957754443971002
249,1056,33619968,11.853735622660189
250,1058,33619968,11.958026646293186
251,1060,33619968,12.065143222573395
252,1062,33619968,11.759135461382115
253,1068,33619968,11.988181538753384
254,1070,33619968,11.897230759431183
255,1072,33619968,11.943616979704357
256,1074,33619968,12.046743703313002
257,1076,33619968,11.972748261154306
258,1078,33619968,11.6150970148274
259,1084,33619968,11.808304877937415
260,1086,33619968,11.698125444943253
261,1088,33619968,11.68550054621599
262,1090,33619968,11.835578938845343
263,1092,33619968,11.790679812948158
264,1094,33619968,11.842779032977345
265,1100,33619968,11.258490088366841
266,1102,33619968,11.911663698195994
267,1103,33619968,12.154333428895455
268,1104,33619968,11.541977373995097
269,1106,33619968,11.874904368428972
270,1108,33619968,11.772843435040246
271,1110,33619968,11.899652071114824
272,1116,33619968,11.804324698589168
273,1118,33619968,11.920173760985042
274,1120,33619968,11.687714538599044
275,1122,33619968,11.894128710020016
276,1124,33619968,11.69500022610819
277,1126,33619968,11.909908295035844
278,1132,33619968,11.816007507143384
279,1134,33619968,11.89453268452287
280,1136,33619968,11.61355630093026
281,1138,33619968,12.166019645136917
282,1140,33619968,11.719395164298268
283,1142,33619968,12.161372377091165
284,1148,33619968,11.78776945877888
285,1150,33619968,12.06057268761975
286,1152,33619968,11.689661107292206
287,1154,33619968,12.205877996288132
288,1156,33619968,11.802865971694159
289,1158,33619968,12.079431138014998
290,1164,33619968,11.89292115820607
291,1166,33619968,12.199358462632626
292,1168,33619968,11.565864772826178
293,1170,33619968,12.188032297953807
294,1172,33619968,11.824119397693837
295,1174,33619968,12.14618354049665
296,1180,33619968,11.964703734507172
297,1182,33619968,12.225900824649068
298,1184,33619968,11.908149191328933
299,1186,33619968,12.167987882670372
300,1188,33619968,11.959119833553936
301,1190,33619968,12.192133999005625
302,1196,33619968,11.939142277281695
303,1198,33619968,12.144358340548793
304,1200,33619968,11.740873574907333
305,1202,33619968,12.239431466581625
306,1204,33619968,12.073878415713152
307,1206,33619968,11.982033348004983
308,1212,33619968,11.789489039832521
309,1214,33619968,12.217654709561504
310,1216,33619968,11.637995009019281
311,1218,33619968,12.23003250674435
312,1220,33619968,12.199070736172166
313,1222,33619968,12.174473920636984
314,1228,33619968,11.69838188468001
315,1230,33619968,12.004756201808641
316,1232,33619968,11.927891886790645
317,1234,33619968,12.099741989491713
318,1236,33619968,12.26630084207761
319,1238,33619968,11.932633441006345
320,1244,33619968,11.87034268673917
321,1246,33619968,11.996809887493225
322,1248,33619968,12.139867876802972
323,1250,33619968,11.99968733681998
324,1252,33619968,12.17165746128381
325,1254,33619968,12.07179746075495
326,1260,33619968,11.869408142449979
327,1262,33619968,12.128656232356702
328,1264,33619968,11.8473195502102
329,1266,33619968,12.109504313069525
330,1268,33619968,11.597527468262863
331,1270,33619968,12.06902396970751
332,1276,33619968,11.556958983756648
333,1279,33619968,12.173490876752883
334,1280,33619968,11.684980684312325
335,1282,33619968,12.172358148626735
336,1284,33619968,11.882698357662493
337,1286,33619968,12.144217963273277
338,1292,33619968,12.227465998919822
339,1294,33619968,12.129356353396819
340,1296,33619968,11.804192072153807
341,1298,33619968,12.223482706954993
342,1300,33619968,12.12571660636864
343,1302,33619968,12.14983558676498
344,1308,33619968,11.61522141320965
345,1310,33619968,12.044534008286446
346,1312,33619968,11.656851371189589
347,1314,33619968,12.222491732905219
348,1316,33619968,12.211406452437762
349,1318,33619968,12.095140857079334
350,1324,33619968,12.254993039580166
351,1326,33619968,12.153916008479552
352,1328,33619968,12.056697372663116
353,1330,33619968,12.165737891424486
354,1332,33619968,12.052405428678156
355,1334,33619968,12.255135989490173
356,1340,33619968,11.60303501448655
357,1342,33619968,12.26787637822169
358,1344,33619968,12.231879101476304
359,1346,33619968,11.828383432788717
360,1348,33619968,11.667336908728856
361,1350,33619968,12.17038849712573
362,1356,33619968,11.48683130229426
363,1358,33619968,11.71887228229612
364,1360,33619968,11.485705032328772
365,1362,33619968,11.746780812967453
366,1364,33619968,12.170243111878378
367,1366,33619968,11.645993334550356
368,1372,33619968,12.21552390368112
369,1374,33619968,11.564591676994661
370,1376,33619968,12.186759917338746
371,1378,33619968,12.133563156663866
372,1380,33619968,12.204176576670761
373,1382,33619968,11.678490367841533
374,1388,33619968,12.268301663301578
375,1390,33619968,11.660728660967633
376,1392,33619968,12.195247476339492
377,1394,33619968,11.621388491081216
378,1396,33619968,12.15700559866439
379,1398,33619968,11.622549565277513
380,1404,33619968,12.233592706122769
381,1406,33619968,12.264582536852151
382,1408,33619968,12.171794066950724
383,1410,33619968,11.554416991126597
384,1412,33619968,12.259001368108772
385,1414,33619968,12.293854858509006
386,1420,33619968,11.466521783172027
387,1422,33619968,11.78816624065133
388,1424,33619968,12.288395240782599
389,1426,33619968,11.828512441763344
390,1431,33751040,11.800097474542293
391,1432,33751040,12.311391644123836
392,1435,33751040,12.340489012001532
393,1440,33751040,12.281716054018963
394,1442,33751040,11.611211509159846
395,1444,33751040,12.178472083652519
396,1446,33751040,11.705673972863096
397,1448,33751040,12.217265885485576
398,1450,33751040,11.755508287290894
399,1456,33751040,11.58569857378438
400,1458,33751040,11.770726564508045
401,1460,33751040,12.14481644620156
402,1462,33751040,11.60061166851526
403,1464,33751040,11.519775004394445
404,1466,33751040,12.2407986485124
405,1472,33751040,11.678710073450768
406,1474,33751040,11.698792583159388
407,1476,33751040,12.122482507347794
408,1478,33751040,12.30248827016671
409,1481,33751040,12.223920842138812
410,1482,33751040,11.654191598674467
411,1488,33767424,11.905860019843438
412,1490,33767424,12.125714868474255
413,1492,33767424,12.154770796520381
414,1494,33767424,11.961869297132546
415,1496,33767424,11.99477404270707
416,1498,33767424,11.965938591660695
417,1504,33767424,11.880525639897968
418,1506,33767424,12.062370463406113
419,1508,33767424,11.968924501055913
420,1510,33767424,11.90613288427181
421,1512,33767424,11.99273348991017
422,1514,33767424,11.986462818542275
423,1520,33767424,12.016491998476917
424,1522,33767424,11.9855140623131
425,1524,33767424,11.923213870823997
426,1526,33767424,11.91338726578018
427,1528,33767424,12.046538790709223
428,1530,33767424,12.008428233943592
429,1536,33767424,12.106660031457489
430,1538,33767424,11.983200237624015
431,1540,33767424,11.93508121210579
432,1542,33767424,12.074520888869818
433,1544,33767424,11.934950441612717
434,1546,33767424,12.002823740176092
435,1552,33767424,11.390258612663885
436,1554,33767424,11.593105541357277
437,1556,33767424,11.491725462596804
438,1558,33767424,11.883335245416456
439,1560,33767424,11.48072301773273
440,1562,33767424,11.915943315729187
441,1568,33767424,11.532921026422889
442,1570,33767424,11.692924600334297
443,1572,33767424,11.418359769681182
444,1573,33767424,12.098193086413914
445,1574,33767424,11.997778624985921
446,1576,33767424,11.57149774429391
447,1578,33767424,11.953332781108823
448,1584,33767424,11.609179824683542
449,1586,33767424,11.923079150286041
450,1588,33767424,11.575178757086782
451,1590,33767424,11.861295505430899
452,1592,33767424,11.571624636795638
453,1594,33767424,11.988369294084317
454,1600,33767424,11.673650764238221
455,1602,33767424,11.862224696878947
456,1604,33767424,11.524733822162215
457,1606,33767424,12.240920564249073
458,1608,33767424,11.577464701810399
459,1610,33767424,12.201572196938354
460,1616,33767424,11.637478503313677
461,1618,33767424,12.176369982182992
462,1620,33767424,11.379576062447196
463,1622,33767424,12.210184511878989
464,1624,33767424,11.920924035644765
465,1626,33767424,12.135197200318263
466,1632,33767424,12.052455201386298
467,1634,33767424,12.160373604394346
468,1636,33767424,11.587508145675388
469,1638,33767424,12.209195595965921
470,1640,33767424,11.700318708147467
471,1642,33767424,12.109577624297604
472,1648,33767424,11.991230144779315
473,1650,33767424,12.133527130042022
474,1652,33767424,11.940888622651157
475,1654,33767424,12.10916073922796
476,1656,33767424,11.915405108806498
477,1658,33767424,12.166126228955356
478,1664,33767424,12.077975953086522
479,1666,33767424,12.038293034476636
480,1668,33767424,11.908950415910471
481,1670,33767424,12.251864134349018
482,1672,33767424,12.048184998883219
483,1674,33767424,12.184243276234655
484,1680,33767424,11.88172959385101
485,1682,33767424,12.201572196938354
486,1684,33767424,11.62478247054251
487,1686,33767424,12.247455929189288
488,1688,33767424,12.209478127023694
489,1690,33767424,12.00596468547804
490,1696,33767424,11.779862677557388
491,1698,33767424,11.972047727335578
492,1700,33767424,11.839204535494027
493,1702,33767424,12.148893402147536
494,1704,33767424,12.174122338172229
495,1706,33767424,11.855294686407571
496,1712,33767424,11.785914879447803
497,1714,33767424,11.90303975432113
498,1716,33767424,12.174679781855783
499,1718,33767424,11.941969694719175
500,1720,33767424,12.198610112144015
501,1722,33767424,12.101245372990125
502,1728,33767424,11.814814115038953
503,1730,33767424,11.885744536610675
504,1732,33767424,11.759646118045625
505,1734,33767424,12.060991769897154
506,1736,33767424,11.843456631123065
507,1738,33767424,11.990008156100014
508,1744,33767424,11.644666098125434
509,1746,33767424,12.029921413005491
510,1748,33767424,11.724498745518344
511,1750,33767424,12.144558969982272
512,1752,33767424,11.699536313772448
513,1754,33767424,12.076179072963638
514,1760,33767424,12.17946184818046
515,1762,33767424,11.888020875506696
516,1764,33767424,11.639785111175838
517,1766,33767424,12.191422461584342
518,1768,33767424,11.988373550288442
519,1770,33767424,12.014576568614265
520,1776,33767424,11.685155674965248
521,1778,33767424,12.073691967575535
522,1780,33767424,11.707714054801274
523,1782,33767424,12.202559878232506
524,1784,33767424,12.174829027410418
525,1786,33767424,12.12000473782254
526,1792,33767424,12.277237312705129
527,1794,33767424,12.182836584201656
528,1796,33767424,12.14469874209878
529,1798,33767424,12.240494587055695
530,1800,33767424,12.14469874209878
531,1802,33767424,12.209336859860326
532,1808,33767424,11.551226774344947
533,1810,33767424,12.202277667261107
534,1812,33767424,12.192972022631478
535,1814,33767424,11.939132297940317
536,1816,33767424,11.669261608034262
537,1818,33767424,12.233824812900949
538,1824,33767424,11.724234142866022
539,1826,33767424,11.761874408291135
540,1828,33767424,11.752050066090748
541,1830,33767424,11.881462027440987
542,1832,33767424,12.099996524165826
543,1834,33767424,11.856231263653964
544,1840,33767424,12.247740233794808
545,1842,33767424,11.658303143838944
546,1844,33767424,12.253002250849013
547,1846,33767424,12.118478015504365
548,1848,33767424,12.256275513926289
549,1850,33767424,11.68580269108887
550,1856,33767424,12.185087447392094
551,1858,33767424,11.64248199277125
