idx,og Index,data (B),bandwidth (GB/s)
0,2,8192,1.2547097564711287
1,3,8192,1.3061224489795917
2,4,8192,1.3333333333333333
3,5,8192,1.3061224489795917
4,6,8192,1.3264248704663213
5,7,8192,1.122960932145305
6,8,8192,1.3333333333333333
7,9,8192,1.3195876288659794
8,10,8192,1.299492385786802
9,11,8192,1.2866342076331083
10,12,8192,1.3403141361256545
11,13,8192,1.2608896413729413
12,14,8192,1.3264248704663213
13,15,8192,1.1906976744186046
14,16,8192,1.3128205128205128
15,17,8192,1.032258064516129
16,18,8192,1.3128205128205128
17,19,8192,1.3195876288659794
18,20,8192,1.3264248704663213
19,21,8192,1.292929292929293
20,22,8192,1.312610158628425
21,23,8192,1.1797235023041475
22,28,8192,1.326210134369435
23,29,8192,1.2864321608040201
24,30,8192,1.3193751006603318
25,31,8192,1.3061224489795917
26,32,8192,1.3264248704663213
27,33,8192,1.2864321608040201
28,34,8192,1.1906976744186046
29,35,8192,1.1179039301310043
30,36,8192,1.1689497716894977
31,37,8192,0.9624060150375939
32,38,8192,1.2549019607843137
33,39,8192,1.1325867551500068
34,40,8192,1.1428571428571428
35,41,8192,1.3264248704663213
36,42,8192,1.3264248704663213
37,43,8192,1.1082251082251082
38,44,8192,1.3128205128205128
39,45,8192,1.3128205128205128
40,46,8192,1.3989071038251366
41,47,8192,1.3193751006603318
42,48,8192,1.3195876288659794
43,49,8192,1.2367149758454106
44,50,8192,1.3333333333333333
45,51,8192,1.312610158628425
46,52,8192,1.2130904783059382
47,53,8192,1.1277533039647578
48,54,8192,0.8677966101694915
49,55,8192,1.3061224489795917
50,60,8192,1.3128205128205128
51,61,8192,1.28
52,62,8192,1.3264248704663213
53,63,8192,1.3128205128205128
54,64,8192,1.3128205128205128
55,65,8192,1.2248803827751196
56,66,8192,1.3264248704663213
57,67,8192,1.3264248704663213
58,68,8192,1.3333333333333333
59,69,8192,1.326210134369435
60,70,8192,1.3333333333333333
61,71,8192,1.3195876288659794
62,72,8192,1.3195876288659794
63,73,8192,0.9446494464944649
64,74,8192,1.3128205128205128
65,75,8192,1.0118577075098814
66,76,8192,1.3333333333333333
67,77,8192,1.3195876288659794
68,78,8192,1.3128205128205128
69,79,8192,1.3403141361256545
70,80,8192,1.3333333333333333
71,81,8192,1.3195876288659794
72,82,8192,1.2798000312451179
73,83,8192,1.3264248704663213
74,84,8192,1.3195876288659794
75,85,8192,1.3128205128205128
76,86,8192,1.3128205128205128
77,87,8192,1.3403141361256545
78,92,8192,1.3195876288659794
79,93,8192,1.3264248704663213
80,94,8192,1.3264248704663213
81,95,8192,1.3195876288659794
82,96,8192,1.326210134369435
83,97,8192,0.8284789644012945
84,99,8192,1.3264248704663213
85,100,8192,1.3264248704663213
86,101,8192,1.2075471698113207
87,103,8192,1.3264248704663213
88,104,8192,1.3333333333333333
89,105,8192,1.3403141361256545
90,106,8192,1.19608702000292
91,107,8192,1.3128205128205128
92,108,8192,1.3264248704663213
93,109,8192,1.3264248704663213
94,110,8192,1.3061224489795917
95,111,8192,1.3403141361256545
96,112,8192,0.9411764705882353
97,113,8192,1.0407826197433616
98,114,8192,1.3195876288659794
99,115,8192,1.2864321608040201
100,116,8192,1.3264248704663213
101,117,8192,1.2864321608040201
102,118,8192,1.3195876288659794
103,119,8192,0.8152866242038217
104,124,8192,1.3264248704663213
105,125,8192,1.3195876288659794
106,126,8192,1.2736318407960199
107,127,8192,1.3333333333333333
108,128,8192,1.299492385786802
109,129,8192,0.7293447293447294
110,130,8192,1.292929292929293
111,131,8192,0.764179104477612
112,132,8192,1.312610158628425
113,133,8192,0.9923682616596002
114,134,8192,1.292929292929293
115,135,8192,1.3061224489795917
116,136,8192,1.3198002255517964
117,137,8192,1.2018779342723005
118,139,8192,1.3195876288659794
119,140,8192,1.3333333333333333
120,141,8192,1.1327433628318584
121,142,8192,1.3195876288659794
122,143,8192,1.3264248704663213
123,144,8192,1.3128205128205128
124,145,8192,1.1377777777777778
125,146,8192,1.3266396761133603
126,147,8192,1.2610837438423645
127,148,8192,1.3063307287513952
128,149,8192,1.3333333333333333
129,150,8192,1.1277533039647578
130,151,8192,1.3128205128205128
131,156,8192,1.3128205128205128
132,157,8192,1.3061224489795917
133,158,8192,1.3333333333333333
134,159,8192,1.3128205128205128
135,160,8192,1.1130434782608696
136,161,8192,1.2736318407960199
137,162,8192,1.3195876288659794
138,163,8192,1.0940170940170941
139,164,8192,0.807570977917981
140,165,8192,1.3264248704663213
141,166,8192,0.8126984126984127
142,167,8192,1.2673267326732673
143,168,8192,1.3195876288659794
144,169,8192,1.2485901539399482
145,170,8192,1.8285714285714285
146,171,8192,1.3193751006603318
147,172,8192,1.2673267326732673
148,173,8192,1.3264248704663213
149,174,8192,1.3264248704663213
150,175,8192,1.3195876288659794
151,176,8192,1.3264248704663213
152,177,8192,1.0847457627118644
153,178,8192,0.8421052631578947
154,179,8192,1.3195876288659794
155,180,8192,1.2307692307692308
156,181,8192,1.3333333333333333
157,182,8192,1.2132701421800949
158,183,8192,0.9411764705882353
159,188,8192,1.3128205128205128
160,189,8192,1.292929292929293
161,190,8192,1.3333333333333333
162,191,8192,1.3195876288659794
163,192,8192,1.3195876288659794
164,193,8192,1.2862301774218872
165,194,8192,1.2864321608040201
166,195,8192,1.3128205128205128
167,196,8192,1.3193751006603318
168,197,8192,1.2190476190476192
169,198,8192,0.8448844884488449
170,199,8192,1.3128205128205128
171,200,8192,1.1082251082251082
172,201,8192,1.1582072670719639
173,202,8192,1.3195876288659794
174,203,8192,1.0448979591836736
175,204,8192,1.3333333333333333
176,205,8192,1.3128205128205128
177,206,8192,1.3264248704663213
178,207,8192,1.3195876288659794
179,208,8192,1.3403141361256545
180,209,8192,1.2365283018867925
181,210,8192,1.3333333333333333
182,211,8192,1.3195876288659794
183,212,8192,1.3195876288659794
184,213,8192,1.3264248704663213
185,214,8192,1.3061224489795917
186,215,8192,1.3195876288659794
187,220,8192,1.3128205128205128
188,221,8192,1.3195876288659794
189,222,8192,1.3333333333333333
190,223,8192,1.326210134369435
191,224,8192,1.28
192,225,8192,1.299492385786802
193,226,8192,0.8338762214983714
194,227,8192,0.7420289855072464
195,228,8192,1.2673267326732673
196,229,8192,1.3264248704663213
197,230,8192,1.3128205128205128
198,231,8192,1.299492385786802
199,232,8192,1.312610158628425
200,233,8192,1.3128205128205128
201,235,8192,1.3264248704663213
202,236,8192,1.3198002255517964
203,237,8192,1.3128205128205128
204,238,8192,0.8392582727179593
205,239,8192,1.0987124463519313
206,240,8192,0.8888888888888888
207,241,8192,1.3195876288659794
208,242,8192,1.3128205128205128
209,243,8192,1.3333333333333333
210,244,8192,1.3128205128205128
211,245,8192,1.1689497716894977
212,246,8192,1.299492385786802
213,247,8192,1.3128205128205128
214,252,8192,1.3195876288659794
215,253,8192,1.299492385786802
216,254,8192,1.3195876288659794
217,255,8192,1.3837837837837839
218,256,8192,1.3264248704663213
219,257,8192,1.3333333333333333
220,258,8192,1.2864321608040201
221,259,8192,1.3195876288659794
222,260,8192,1.3195876288659794
223,261,8192,1.299492385786802
224,262,8192,1.3195876288659794
225,263,8192,1.3128205128205128
226,264,8192,1.2736318407960199
227,265,8192,1.3331163547599674
228,266,8192,1.3061224489795917
229,267,8192,1.2427184466019416
230,268,8192,1.3128205128205128
231,269,8192,1.3195876288659794
232,270,8192,1.2864321608040201
233,271,8192,1.3333333333333333
234,272,8192,1.3195876288659794
235,273,8192,1.062240663900415
236,274,8192,1.0406504065040652
237,275,8192,1.1228070175438596
238,276,8192,1.3195876288659794
239,277,8192,0.9884169884169884
240,278,8192,1.3195876288659794
241,279,8192,0.9732683854104788
242,284,8192,1.2864321608040201
243,285,8192,1.3061224489795917
244,286,8192,1.3264248704663213
245,287,8192,1.299492385786802
246,288,8192,1.3128205128205128
247,289,8192,1.3059142356129443
248,290,8192,1.3403141361256545
249,291,8192,1.3333333333333333
250,292,8192,1.2864321608040201
251,293,8192,1.0847457627118644
252,294,8192,1.299492385786802
253,295,8192,1.0363061353573688
254,296,8192,1.185013742224794
255,297,8192,1.326210134369435
256,298,8192,1.3061224489795917
257,299,8192,1.1797235023041475
258,300,8192,1.3333333333333333
259,301,8192,1.0846021448431087
260,302,8192,1.3061224489795917
261,303,8192,1.3264248704663213
262,304,8192,1.28
263,305,8192,1.147982062780269
264,306,8192,1.3544973544973544
265,307,8192,1.3059142356129443
266,308,8192,1.3195876288659794
267,309,8192,1.0711297071129706
268,310,8192,0.8858131487889274
269,311,8192,1.2018779342723005
270,316,8192,1.326210134369435
271,317,8192,0.901309274947739
272,318,8192,1.3061224489795917
273,319,8192,0.8284789644012945
274,320,8192,1.3195876288659794
275,321,8192,1.2927252643206564
276,322,8192,0.8736269595819558
277,323,8192,1.3195876288659794
278,324,8192,0.7852760736196319
279,325,8192,1.3128205128205128
280,326,8192,1.3128205128205128
281,327,8192,1.0364372469635628
282,328,8192,1.3195876288659794
283,329,8192,1.0199203187250996
284,330,8192,1.2864321608040201
285,331,8192,1.3403141361256545
286,332,8192,1.28
287,333,8192,1.3333333333333333
288,334,8192,1.3264248704663213
289,335,8192,1.3195876288659794
290,336,8192,1.3333333333333333
291,337,8192,0.9770992366412213
292,338,8192,1.2367149758454106
293,339,8192,1.1636363636363636
294,340,8192,0.7925696594427245
295,341,8192,1.3264248704663213
296,342,8192,1.3264248704663213
297,343,8192,1.3333333333333333
298,348,8192,1.3128205128205128
299,349,8192,0.7925696594427245
300,350,8192,0.9516728624535316
301,351,8192,0.7596439169139466
302,352,8192,1.299492385786802
303,353,8192,1.2864321608040201
304,354,8192,1.3264248704663213
305,355,8192,1.1797235023041475
306,356,8192,1.3128205128205128
307,357,8192,1.3128205128205128
308,358,8192,1.080168776371308
309,359,8192,1.2864321608040201
310,360,8192,1.3128205128205128
311,361,8192,1.3195876288659794
312,362,8192,1.3128205128205128
313,363,8192,1.3333333333333333
314,364,8192,1.0491803278688525
315,365,8192,1.2927252643206564
316,366,8192,1.3195876288659794
317,367,8192,0.8504983388704319
318,368,8192,1.292929292929293
319,369,8192,0.8258064516129032
320,370,8192,0.8982456140350877
321,371,8192,1.1377777777777778
322,372,8192,1.3061224489795917
323,373,8192,0.8858131487889274
324,374,8192,0.8767123287671232
325,375,8192,1.3128205128205128
326,380,8192,1.3195876288659794
327,381,8192,0.9343065693430657
328,382,8192,1.3333333333333333
329,383,8192,1.28
330,384,8192,1.3195876288659794
331,385,8192,1.3128205128205128
332,386,8192,1.3195876288659794
333,387,8192,1.1082251082251082
334,388,8192,1.299492385786802
335,389,8192,0.89198606271777
336,390,8192,1.3264248704663213
337,391,8192,1.1797235023041475
338,392,8192,1.3264248704663213
339,393,8192,1.0078740157480315
340,394,8192,0.8707482993197279
341,395,8192,1.3128205128205128
342,396,8192,1.3198002255517964
343,397,8192,1.3061224489795917
344,398,8192,1.2132701421800949
345,399,8192,1.3264248704663213
346,400,8192,1.1179039301310043
347,401,8192,1.3198002255517964
348,402,8192,1.3128205128205128
349,403,8192,1.3264248704663213
350,404,8192,1.3333333333333333
351,405,8192,1.2610837438423645
352,406,8192,0.8677966101694915
353,407,8192,0.8449716348633316
354,412,8192,1.28
355,413,8192,1.3061224489795917
356,414,8192,1.326210134369435
357,415,8192,0.8561872909698997
358,416,8192,1.3331163547599674
359,417,8192,1.3333333333333333
360,418,8192,1.3333333333333333
361,419,8192,1.1277533039647578
362,420,8192,1.326210134369435
363,421,8192,1.1531531531531531
364,422,8192,1.2018779342723005
365,423,8192,1.3195876288659794
366,424,8192,1.3264248704663213
367,425,8192,1.3128205128205128
368,426,8192,1.3264248704663213
369,427,8192,1.2190476190476192
370,428,8192,1.3195876288659794
371,429,8192,1.0666666666666667
372,430,8192,1.3400948797644365
373,431,8192,1.3264248704663213
374,432,8192,1.3544973544973544
375,433,8192,1.3195876288659794
376,434,8192,1.3195876288659794
377,435,8192,1.3264248704663213
378,436,8192,1.3128205128205128
379,437,8192,0.9696969696969697
380,438,8192,1.3333333333333333
381,439,8192,0.8
382,444,8192,0.8888888888888888
383,445,8192,1.28
384,446,8192,1.299492385786802
385,447,8192,1.28
386,448,8192,1.3128205128205128
387,449,8192,1.3195876288659794
388,450,8192,1.3264248704663213
389,451,8192,1.3128205128205128
390,452,8192,1.3195876288659794
391,453,8192,1.3333333333333333
392,454,8192,1.3195876288659794
393,455,8192,1.3128205128205128
394,456,8192,1.3264248704663213
395,457,8192,1.3264248704663213
396,458,8192,1.3128205128205128
397,459,8192,1.292929292929293
398,460,8192,1.3264248704663213
399,461,8192,1.3264248704663213
400,462,8192,1.3128205128205128
401,463,8192,1.3195876288659794
402,464,8192,1.3264248704663213
403,465,8192,1.3128205128205128
404,466,8192,1.3061224489795917
405,467,8192,1.2132701421800949
406,468,8192,0.9014084507042254
407,469,8192,1.3128205128205128
408,470,8192,1.312610158628425
409,471,8192,1.3266396761133603
410,476,8192,1.3061224489795917
411,477,8192,1.3195876288659794
412,478,8192,1.3195876288659794
413,479,8192,1.312610158628425
414,480,8192,1.3264248704663213
415,481,8192,1.3264248704663213
416,482,8192,1.312610158628425
417,483,8192,0.8448844884488449
418,484,8192,1.312610158628425
419,485,8192,1.089216859460178
420,486,8192,1.3128205128205128
421,487,8192,1.3128205128205128
422,488,8192,1.3193751006603318
423,489,8192,1.28
424,490,8192,1.3195876288659794
425,491,8192,1.3195876288659794
426,492,8192,1.3264248704663213
427,493,8192,1.3264248704663213
428,494,8192,1.3333333333333333
429,495,8192,1.3195876288659794
430,496,8192,1.3128205128205128
431,498,8192,1.3264248704663213
432,499,8192,1.3128205128205128
433,500,8192,1.3061224489795917
434,501,8192,1.3195876288659794
435,502,8192,1.326210134369435
436,503,8192,1.2864321608040201
437,508,8192,1.3264248704663213
438,509,8192,0.7420289855072464
439,510,8192,1.3264248704663213
440,511,8192,0.973384030418251
441,512,8192,1.326210134369435
442,513,8192,1.3128205128205128
443,514,8192,1.326210134369435
444,515,8192,1.3264248704663213
445,516,8192,1.3128205128205128
446,517,8192,1.326210134369435
447,518,8192,1.3403141361256545
448,519,8192,1.3195876288659794
449,520,8192,1.0666666666666667
450,521,8192,1.3264248704663213
451,522,8192,1.0491803278688525
452,523,8192,1.3264248704663213
453,524,8192,1.0078740157480315
454,525,8192,1.3195876288659794
455,526,8192,1.3333333333333333
456,527,8192,1.3333333333333333
457,528,8192,1.3333333333333333
458,529,8192,1.3193751006603318
459,530,8192,1.3128205128205128
460,531,8192,1.1082251082251082
461,532,8192,1.0987124463519313
462,533,8192,0.8504983388704319
463,1044,8192,1.0578512396694215
464,1045,8192,1.3195876288659794
465,1046,8192,1.3195876288659794
466,1047,8192,1.1531531531531531
467,1048,8192,1.299492385786802
468,1049,8192,1.3264248704663213
469,1050,8192,1.312610158628425
470,1051,8192,1.312610158628425
471,1052,8192,1.2132701421800949
472,1053,8192,1.3264248704663213
473,1054,8192,1.292929292929293
474,1055,8192,1.3264248704663213
475,1056,8192,1.0938710108158634
476,1057,8192,1.3333333333333333
477,1058,8192,1.3128205128205128
478,1059,8192,0.8827586206896552
479,1060,8192,1.3128205128205128
480,1061,8192,1.0199203187250996
481,1062,8192,1.3128205128205128
482,1063,8192,1.3195876288659794
483,1064,8192,1.3333333333333333
484,1065,8192,1.28
485,1066,8192,1.326210134369435
486,1067,8192,1.3195876288659794
487,1068,8192,1.3195876288659794
488,1069,8192,1.3405334642448044
489,1070,8192,1.2190476190476192
490,1071,8192,0.9696969696969697
491,1076,8192,1.3061224489795917
492,1077,8192,0.8982456140350877
493,1078,8192,1.3195876288659794
494,1079,8192,1.3264248704663213
495,1080,8192,1.3128205128205128
496,1081,8192,1.2018779342723005
497,1082,8192,1.3195876288659794
498,1083,8192,1.1277533039647578
499,1084,8192,0.9696969696969697
500,1085,8192,1.3264248704663213
501,1086,8192,1.3264248704663213
502,1087,8192,1.2018779342723005
503,1088,8192,1.3128205128205128
504,1089,8192,1.1962616822429906
505,1090,8192,1.3264248704663213
506,1091,8192,1.0756302521008403
507,1092,8192,0.847682119205298
508,1093,8192,1.2307692307692308
509,1095,8192,1.3264248704663213
510,1096,8192,1.3400948797644365
511,1097,8192,1.1743119266055047
512,1098,8192,1.3264248704663213
513,1099,8192,0.8707482993197279
514,1100,8192,0.8100464748343716
515,1101,8192,1.3264248704663213
516,1102,8192,1.28
517,1103,8192,1.3403141361256545
518,1108,8192,1.3264248704663213
519,1109,8192,1.3195876288659794
520,1110,8192,0.9309090909090909
521,1111,8192,1.2248803827751196
522,1112,8192,1.28
523,1113,8192,1.3195876288659794
524,1114,8192,1.3128205128205128
525,1115,8192,1.2673267326732673
526,1116,8192,0.9274312238197668
527,1117,8192,0.9846153846153847
528,1118,8192,1.3059142356129443
529,1119,8192,1.3333333333333333
530,1120,8192,1.312610158628425
531,1121,8192,1.158371040723982
532,1122,8192,1.3195876288659794
533,1123,8192,1.3264248704663213
534,1124,8192,0.8231511254019293
535,1125,8192,1.3128205128205128
536,1126,8192,1.3128205128205128
537,1127,8192,1.292929292929293
538,1128,8192,1.3195876288659794
539,1129,8192,1.3128205128205128
540,1130,8192,1.3264248704663213
541,1131,8192,1.3333333333333333
542,1132,8192,1.3195876288659794
543,1133,8192,1.152990851513019
544,1134,8192,1.3333333333333333
545,1135,8192,1.3264248704663213
546,1140,8192,1.3128205128205128
547,1141,8192,0.7900472562445752
548,1142,8192,1.3333333333333333
549,1143,8192,1.248780487804878
550,1144,8192,1.3264248704663213
551,1145,8192,1.292929292929293
552,1146,8192,1.3195876288659794
553,1147,8192,1.3193751006603318
554,1148,8192,1.0077500307540903
555,1149,8192,1.0406504065040652
556,1150,8192,1.3264248704663213
557,1151,8192,1.0118577075098814
558,1152,8192,1.3333333333333333
559,1153,8192,1.292929292929293
560,1155,8192,1.3195876288659794
561,1156,8192,1.3195876288659794
562,1157,8192,1.292929292929293
563,1158,8192,1.3333333333333333
564,1159,8192,0.924187725631769
565,1160,8192,1.3264248704663213
566,1161,8192,1.1851851851851851
567,1162,8192,1.3264248704663213
568,1163,8192,1.3264248704663213
569,1164,8192,1.3333333333333333
570,1165,8192,1.3128205128205128
571,1166,8192,1.1277533039647578
572,1167,8192,1.3333333333333333
573,1172,8192,1.299492385786802
574,1173,8192,1.3128205128205128
575,1174,8192,1.2307692307692308
576,1175,8192,1.024
577,1176,8192,1.3128205128205128
578,1177,8192,1.3128205128205128
579,1178,8192,1.3333333333333333
580,1179,8192,0.9884169884169884
581,1180,8192,1.299492385786802
582,1181,8192,0.9884169884169884
583,1182,8192,1.3333333333333333
584,1183,8192,1.0666666666666667
585,1184,8192,1.3264248704663213
586,1185,8192,1.3264248704663213
587,1186,8192,1.3128205128205128
588,1187,8192,0.8448844884488449
589,1188,8192,0.6790450928381963
590,1189,8192,0.8178913738019169
591,1190,8192,1.2864321608040201
592,1191,8192,1.0281124497991967
593,1192,8192,1.3264248704663213
594,1193,8192,1.3195876288659794
595,1194,8192,0.901309274947739
596,1195,8192,1.299492385786802
597,1197,8192,1.3128205128205128
598,1198,8192,1.3061224489795917
599,1199,8192,1.1376197750312456
600,1204,8192,1.147982062780269
601,1205,8192,1.3264248704663213
602,1206,8192,1.112892270072001
603,1207,8192,1.3195876288659794
604,1208,8192,1.1428571428571428
605,1209,8192,1.326210134369435
606,1210,8192,1.326210134369435
607,1211,8192,1.2018779342723005
608,1212,8192,1.326210134369435
609,1213,8192,1.0534979423868314
610,1214,8192,1.3264248704663213
611,1215,8192,1.1179039301310043
612,1216,8192,1.3264248704663213
613,1217,8192,1.3195876288659794
614,1218,8192,0.9446494464944649
615,1219,8192,1.3128205128205128
616,1220,8192,1.3264248704663213
617,1221,8192,1.3195876288659794
618,1222,8192,1.2427184466019416
619,1223,8192,1.2190476190476192
620,1224,8192,1.2610837438423645
621,1225,8192,1.0940170940170941
622,1226,8192,1.3333333333333333
623,1227,8192,1.0533624791050533
624,1228,8192,1.3333333333333333
625,1229,8192,1.1797235023041475
626,1230,8192,1.3128205128205128
627,1231,8192,1.3403141361256545
628,1236,8192,1.3128205128205128
629,1237,8192,1.3128205128205128
630,1238,8192,1.3061224489795917
631,1239,8192,1.1179039301310043
632,1240,8192,1.1228070175438596
