idx,og Index,data (B),bandwidth (GB/s)
0,0,27901952,25.117342897060308
1,1,27901952,24.920200205063715
2,2,27901952,25.149899137031223
3,3,27901952,24.85349666015533
4,5,27901952,24.98511474887239
5,7,27901952,24.673716901728543
6,9,27901952,25.04458971484376
7,11,27901952,24.84572861457799
8,13,27901952,25.028773900134105
9,15,27901952,24.70861110127165
10,19,28008448,23.822663148780393
11,21,28008448,24.581018295048242
12,23,28008448,24.182884890514792
13,25,28008448,24.781894853822074
14,27,28008448,24.263204081226032
15,29,28008448,24.894517303137096
16,31,28008448,24.23570070669024
17,33,28008448,24.887460858500592
18,35,28008448,24.226330229838528
19,37,28008448,24.598245620198202
20,40,28008448,25.225563801426617
21,41,28008448,24.737113201748034
22,43,28008448,24.769994189650856
23,45,28008448,24.749004153044094
24,47,28008448,24.86485853055724
25,49,28008448,24.891685396453827
26,51,28008448,24.815576646371284
27,53,28008448,24.854267477262987
28,55,28008448,24.82822543256782
29,57,28008448,24.859914915976642
30,59,28008448,24.890977520451102
31,61,28008448,24.883193540849877
32,63,28008448,24.748304368878852
33,65,28008448,24.986081597770486
34,66,28008448,25.13151753067588
35,67,28008448,24.92992620297342
36,69,28008448,24.99319408589533
37,71,28008448,24.720367233857395
38,73,28008448,24.547969794069598
39,75,28008448,24.816280240149137
40,77,28008448,24.965413721487845
41,79,28008448,24.875436521047153
42,83,28114944,23.863940889626402
43,85,28114944,24.804575026158886
44,87,28114944,24.245381165919284
45,89,28114944,24.80107408315676
46,91,28114944,24.156180781213216
47,93,28114944,24.963634620097388
48,95,28114944,24.21134831170397
49,97,28114944,24.741795986039318
50,99,28114944,24.288906819913574
51,101,28114944,24.536835435746788
52,103,28114944,24.996282779069407
53,105,28114944,24.654424344571588
54,108,28114944,25.167186899967508
55,109,28114944,24.64681650862224
56,111,28114944,24.977118550711246
57,113,28114944,24.888785019426834
58,115,28114944,24.698716349414397
59,117,28114944,24.484930612102712
60,119,28114944,24.53615020360289
61,121,28114944,24.650965655169873
62,123,28114944,24.62337416655646
63,125,28114944,24.463157271919652
64,127,28114944,24.622684092479535
65,129,28114944,24.61718644655481
66,131,28114944,24.97782863478548
67,133,28114944,24.76409019202668
68,135,28114944,24.859955452710285
69,137,28114944,24.776616960582057
70,139,28114944,24.832574325637268
71,141,28114944,24.8522202627985
72,143,28114944,24.901482400644085
73,147,28221440,23.846289691442053
74,149,28221440,24.548323457675004
75,151,28221440,24.140965093192886
76,153,28221440,24.718722820208058
77,155,28221440,24.228384224366398
78,156,28221440,25.19620701261621
79,157,28221440,24.852990000308225
80,159,28221440,24.146893235450143
81,161,28221440,24.68693714774579
82,163,28221440,24.285030789300674
83,165,28221440,24.649052780519334
84,167,28221440,24.78114761943649
85,169,28221440,24.857192936407763
86,171,28221440,24.848788485260982
87,173,28221440,24.80340655912041
88,174,28221440,25.132370123393464
89,175,28221440,24.81876280119356
90,177,28221440,24.819461264004207
91,179,28221440,24.762382753204818
92,181,28221440,24.80342835848705
93,183,28221440,24.82784588518367
94,185,28221440,24.79366607745912
95,187,28221440,24.94779088064214
96,189,28221440,24.885907200231387
97,191,28221440,24.87678159176834
98,193,28221440,24.990139935871948
99,194,28221440,25.189730040924527
100,195,28221440,24.959043432887302
101,197,28221440,25.01774289774364
102,199,28221440,24.70835646157968
103,201,28221440,24.892909499221144
104,203,28221440,24.80829057447338
105,205,28221440,24.96047831105254
106,207,28221440,24.799265374628185
107,211,28327936,23.86477048808823
108,213,28327936,24.536591027597662
109,215,28327936,24.167974971995356
110,217,28327936,24.67798759999756
111,219,28327936,24.17389404696887
112,221,28327936,24.879555033668453
113,223,28327936,24.190387868571637
114,225,28327936,24.796037946917032
115,227,28327936,24.114053396983863
116,229,28327936,24.491173284433874
117,231,28327936,24.807829091116083
118,233,28327936,24.803680283271138
119,235,28327936,24.830073838257054
120,237,28327936,24.904008404506435
121,239,28327936,24.8823522694833
122,241,28327936,24.873962448380354
123,243,28327936,24.853034431812798
124,245,28327936,24.817544031791197
125,247,28327936,24.917327028341678
126,249,28327936,24.866975251474965
127,251,28327936,24.93063796456828
128,253,28327936,24.908234648621463
129,255,28327936,24.849568017600355
130,257,28327936,25.017871462534927
131,259,28327936,24.878156651593486
132,261,28327936,24.934127035122447
133,263,28327936,24.765558939855435
134,265,28327936,24.92081237386933
135,267,28327936,24.806438760060562
136,269,28327936,24.69793265072678
137,271,28327936,24.75173156787825
138,275,28434432,23.977070598641877
139,277,28434432,24.795602889201074
140,279,28434432,24.276685464006864
141,281,28434432,24.70129985205854
142,283,28434432,24.29325755724643
143,285,28434432,24.92341998050614
144,287,28434432,24.227125209068035
145,289,28434432,24.754911469061618
146,291,28434432,24.28995792845702
147,293,28434432,24.59274942657575
148,295,28434432,24.873928173402778
149,297,28434432,24.691025607627584
150,299,28434432,24.893439766915357
151,301,28434432,25.013113343731114
152,303,28434432,24.028210789968032
153,305,28434432,24.807349438584552
154,307,28434432,24.798370871034557
155,309,28434432,24.723959112267362
156,311,28434432,24.620644868568935
157,313,28434432,24.65339076513307
158,315,28434432,24.747327652982186
159,317,28434432,24.928991940327034
160,319,28434432,24.585264628675976
161,321,28434432,24.599557744149106
162,323,28434432,24.94228729773186
163,325,28434432,24.869076803995224
164,327,28434432,24.817049265030608
165,329,28434432,24.717769332141827
166,331,28434432,24.85449059295337
167,333,28434432,24.541870467085964
168,335,28434432,24.814298767158075
169,339,28540928,23.976397373602964
170,341,28540928,24.519508010676894
171,343,28540928,24.036429080943876
172,345,28540928,24.591740407895983
173,347,28540928,24.220252870227284
174,349,28540928,24.877384804195025
175,351,28540928,24.261058866431657
176,353,28540928,24.75396709754862
177,355,28540928,24.284137290254073
178,357,28540928,24.60325141998557
179,359,28540928,24.80001876885031
180,361,28540928,24.834481042352987
181,363,28540928,24.804825224661485
182,365,28540928,24.708064747914946
183,366,28540928,25.208825451783284
184,367,28540928,24.789011893822405
185,369,28540928,24.71833618269149
186,372,28540928,25.1329280846496
187,373,28540928,24.68417392868633
188,375,28540928,24.771821103620788
189,377,28540928,24.72381777388924
190,379,28540928,24.92668352263547
191,381,28540928,24.84208987078007
192,383,28540928,24.865615909294856
193,385,28540928,24.891943348686063
194,387,28540928,24.721740478671478
195,389,28540928,24.918326597571635
196,391,28540928,24.890575726285824
197,393,28540928,24.873222154052094
198,395,28540928,24.784190041838244
199,397,28540928,24.944089998566678
200,399,28540928,24.703958563789364
201,403,28647424,23.780485962440885
202,405,28647424,24.642097476215874
203,407,28647424,24.465238303454306
204,409,28647424,24.62383939515318
205,411,28647424,24.184041487169488
206,413,28647424,24.654970639443064
207,415,28647424,24.05682792488892
208,417,28647424,24.499321397570373
209,418,28647424,25.151668983052485
210,419,28647424,24.455213483759938
211,421,28647424,24.636693484234108
212,423,28647424,24.611654172157895
213,424,28647424,25.16722467084196
214,425,28647424,24.55770636971887
215,427,28647424,24.75985448712242
216,428,28647424,25.176403589871583
217,429,28647424,24.866303606242045
218,431,28647424,24.630593001531274
219,433,28647424,24.684840593971533
220,435,28647424,24.908464248574916
221,438,28647424,25.18277747499077
222,806,28647424,24.417901593400693
223,807,28647424,25.190550012354592
224,808,28647424,24.820887116757902
225,811,28647424,25.188423713538345
226,812,28647424,24.951441783008327
227,814,28647424,24.984126458083505
228,816,28647424,24.969514406046915
229,817,28647424,25.20542198462375
230,818,28647424,24.890479860357498
231,820,28647424,24.97648076332896
232,822,28647424,24.889787840006395
233,824,28647424,24.71548665847632
234,826,28647424,24.75848497288421
235,827,28647424,25.158737365709204
236,828,28647424,24.989705757919133
237,830,28647424,24.661083205282164
238,834,28753920,23.971288395726607
239,836,28753920,24.664539372104993
240,838,28753920,24.65846887925172
241,840,28753920,24.278536056098993
242,842,28753920,24.249093207553216
243,844,28753920,24.85533573467975
244,846,28753920,24.365973637492214
245,848,28753920,24.528034066713982
246,850,28753920,24.63550421788011
247,852,28753920,24.405640286988177
248,854,28753920,24.949063127708772
249,856,28753920,24.34554960523252
250,858,28753920,24.970512759277995
251,860,28753920,24.615953586205304
252,862,28753920,25.001756405663627
253,864,28753920,24.5240383836299
254,866,28753920,24.77936018503996
255,868,28753920,24.494665150334146
256,870,28753920,24.611234031626473
257,872,28753920,24.546795607277495
258,874,28753920,24.773894717977967
259,876,28753920,24.622024245320098
260,878,28753920,24.83680770898512
261,880,28753920,24.54813681564856
262,882,28753920,24.94146710430444
263,884,28753920,24.583690282601225
264,886,28753920,25.067931371181476
265,888,28753920,24.56623649575169
266,890,28753920,24.85739849838557
267,892,28753920,24.505332485635442
268,894,28753920,24.94837042107976
