idx,og Index,data (B),bandwidth (GB/s)
0,0,16384,2.0810364537025277
1,1,16384,2.359447004608295
2,2,16384,2.327272727272727
3,3,16384,2.3486238532110093
4,4,16384,2.3703703703703702
5,5,16384,2.359447004608295
6,6,16384,2.2555066079295156
7,7,16384,2.359447004608295
8,8,16384,2.316742081447964
9,9,16384,2.3703703703703702
10,10,16384,2.359447004608295
11,11,16384,2.3486238532110093
12,16,16384,2.0728744939271255
13,17,16384,2.327272727272727
14,18,16384,2.3703703703703702
15,19,16384,2.3486238532110093
16,20,16384,2.3813953488372093
17,21,16384,2.3591072714182864
18,22,16384,2.327272727272727
19,23,16384,2.3703703703703702
20,24,16384,2.370027484449588
21,25,16384,2.3378995433789953
22,26,16384,2.327272727272727
23,27,16384,2.359447004608295
24,32,16384,2.098360655737705
25,33,16384,2.2956424267899678
26,34,16384,2.348287229468253
27,35,16384,2.3486238532110093
28,36,16384,2.3813953488372093
29,37,16384,2.359447004608295
30,38,16384,2.3063063063063063
31,39,16384,2.3378995433789953
32,40,16384,2.359447004608295
33,41,16384,2.3703703703703702
34,42,16384,2.3486238532110093
35,43,16384,2.3378995433789953
36,48,16384,2.089795918367347
37,49,16384,2.359447004608295
38,50,16384,2.370027484449588
39,51,16384,2.370027484449588
40,52,16384,2.3486238532110093
41,53,16384,2.3378995433789953
42,54,16384,2.316742081447964
43,55,16384,2.3378995433789953
44,56,16384,2.2857142857142856
45,57,16384,2.3486238532110093
46,58,16384,2.359447004608295
47,59,16384,2.3375659865886718
48,64,16384,2.089795918367347
49,65,16384,2.2755555555555556
50,66,16384,2.327272727272727
51,67,16384,2.3486238532110093
52,68,16384,2.381049266095044
53,69,16384,2.327272727272727
54,70,16384,2.316742081447964
55,71,16384,2.3269421957108367
56,72,16384,2.2755555555555556
57,73,16384,2.3813953488372093
58,74,16384,2.327272727272727
59,75,16384,2.3703703703703702
60,80,16384,2.040094633295978
61,81,16384,2.3378995433789953
62,82,16384,2.3269421957108367
63,83,16384,2.3486238532110093
64,84,16384,2.3703703703703702
65,85,16384,2.2857142857142856
66,86,16384,2.2551961459050243
67,87,16384,2.3813953488372093
68,88,16384,2.359447004608295
69,89,16384,2.327272727272727
70,90,16384,2.245614035087719
71,91,16384,2.3378995433789953
72,96,16384,2.1069958847736627
73,97,16384,2.3486238532110093
74,98,16384,2.3703703703703702
75,99,16384,2.317069721397256
76,100,16384,2.381049266095044
77,101,16384,2.2755555555555556
78,102,16384,2.3378995433789953
79,103,16384,2.3703703703703702
80,104,16384,2.3813953488372093
81,105,16384,2.3378995433789953
82,106,16384,2.3486238532110093
83,107,16384,2.3486238532110093
84,112,16384,2.0813008130081303
85,113,16384,2.3703703703703702
86,114,16384,2.3378995433789953
87,115,16384,2.3486238532110093
88,116,16384,2.359447004608295
89,117,16384,2.3378995433789953
90,118,16384,2.3486238532110093
91,119,16384,2.3703703703703702
92,120,16384,2.3486238532110093
93,121,16384,2.327272727272727
94,122,16384,2.359447004608295
95,123,16384,2.392523364485981
96,128,16384,2.098360655737705
97,129,16384,2.359447004608295
98,130,16384,2.316742081447964
99,131,16384,2.3813953488372093
100,132,16384,2.327272727272727
101,133,16384,2.3063063063063063
102,135,16384,2.3378995433789953
103,136,16384,2.327272727272727
104,137,16384,2.3703703703703702
105,138,16384,2.359447004608295
106,139,16384,2.3486238532110093
107,144,16384,2.0477440319960003
108,145,16384,2.359447004608295
109,146,16384,2.3486238532110093
110,147,16384,2.3703703703703702
111,148,16384,2.3813953488372093
112,149,16384,2.327272727272727
113,150,16384,2.3378995433789953
114,151,16384,2.3703703703703702
115,152,16384,2.39217404000584
116,153,16384,2.3378995433789953
117,154,16384,2.3486238532110093
118,155,16384,2.3378995433789953
119,160,16384,2.0810364537025277
120,161,16384,2.3703703703703702
121,162,16384,2.3063063063063063
122,163,16384,2.359447004608295
123,164,16384,2.3703703703703702
124,165,16384,2.327272727272727
125,166,16384,2.316742081447964
126,167,16384,2.327272727272727
127,168,16384,2.3703703703703702
128,169,16384,2.3378995433789953
129,170,16384,2.3269421957108367
130,171,16384,2.3378995433789953
131,176,16384,2.0980919451914457
132,177,16384,2.359447004608295
133,178,16384,2.3063063063063063
134,179,16384,2.3486238532110093
135,180,16384,2.3703703703703702
136,181,16384,2.359447004608295
137,182,16384,2.3813953488372093
138,183,16384,2.3703703703703702
139,184,16384,2.3486238532110093
140,185,16384,2.359447004608295
141,186,16384,2.245614035087719
142,187,16384,2.359447004608295
143,192,16384,2.0813008130081303
144,193,16384,2.3486238532110093
145,194,16384,2.359447004608295
146,195,16384,2.359447004608295
147,196,16384,2.359447004608295
148,197,16384,2.359447004608295
149,198,16384,2.3703703703703702
150,199,16384,2.3703703703703702
151,200,16384,2.3703703703703702
152,201,16384,2.3703703703703702
153,202,16384,2.3486238532110093
154,203,16384,2.3703703703703702
155,208,16384,2.1069958847736627
156,209,16384,2.3703703703703702
157,210,16384,2.370027484449588
158,211,16384,2.3486238532110093
159,212,16384,2.3703703703703702
160,213,16384,2.3486238532110093
161,214,16384,2.359447004608295
162,215,16384,2.3486238532110093
163,216,16384,2.381049266095044
164,217,16384,2.295964125560538
165,218,16384,2.348287229468253
166,219,16384,2.3486238532110093
167,224,16384,2.089795918367347
168,225,16384,2.3813953488372093
169,226,16384,2.3813953488372093
170,227,16384,2.2651735103000137
171,228,16384,2.3378995433789953
172,229,16384,2.3378995433789953
173,230,16384,2.3378995433789953
174,231,16384,2.3378995433789953
175,232,16384,2.3378995433789953
176,233,16384,2.3378995433789953
177,234,16384,2.3486238532110093
178,235,16384,2.3486238532110093
179,240,16384,2.1069958847736627
180,241,16384,2.3703703703703702
181,242,16384,2.359447004608295
182,243,16384,2.3378995433789953
183,244,16384,2.359447004608295
184,245,16384,2.3703703703703702
185,246,16384,2.359447004608295
186,247,16384,2.3486238532110093
187,248,16384,2.3703703703703702
188,249,16384,2.3378995433789953
189,250,16384,2.3703703703703702
190,251,16384,2.359447004608295
191,256,16384,2.0562248995983934
192,257,16384,2.359447004608295
193,258,16384,2.3703703703703702
194,259,16384,2.3378995433789953
195,260,16384,2.3703703703703702
196,261,16384,2.3063063063063063
197,262,16384,2.3703703703703702
198,263,16384,2.3813953488372093
199,264,16384,2.3703703703703702
200,265,16384,2.3703703703703702
201,266,16384,2.3486238532110093
202,267,16384,2.3703703703703702
203,272,16384,2.0813008130081303
204,273,16384,2.3703703703703702
205,274,16384,2.245614035087719
206,275,16384,2.3486238532110093
207,276,16384,2.3486238532110093
208,277,16384,2.359447004608295
209,278,16384,2.265486725663717
210,279,16384,2.3378995433789953
211,280,16384,2.327272727272727
212,281,16384,2.370713355520185
213,282,16384,2.3486238532110093
214,283,16384,2.3486238532110093
215,288,16384,2.0317460317460316
216,289,16384,2.3813953488372093
217,290,16384,2.3486238532110093
218,291,16384,2.359447004608295
219,292,16384,2.3813953488372093
220,293,16384,2.3378995433789953
221,294,16384,2.359447004608295
222,295,16384,2.327272727272727
223,296,16384,2.3813953488372093
224,297,16384,2.3703703703703702
225,298,16384,2.3813953488372093
226,299,16384,2.327272727272727
227,304,16384,2.0813008130081303
228,305,16384,2.3378995433789953
229,306,16384,2.3378995433789953
230,307,16384,2.265486725663717
231,308,16384,2.3703703703703702
232,309,16384,2.3486238532110093
233,310,16384,2.348287229468253
234,311,16384,2.3486238532110093
235,312,16384,2.3591072714182864
236,313,16384,2.370713355520185
237,314,16384,2.3375659865886718
238,315,16384,2.295964125560538
239,320,16384,2.098360655737705
240,321,16384,2.359447004608295
241,322,16384,2.359447004608295
242,323,16384,2.2555066079295156
243,324,16384,2.327272727272727
244,325,16384,2.3703703703703702
245,326,16384,2.2857142857142856
246,327,16384,2.3486238532110093
247,328,16384,2.3378995433789953
248,329,16384,2.327272727272727
249,330,16384,2.3703703703703702
250,331,16384,2.3164145341439277
251,336,16384,2.098360655737705
252,337,16384,2.3813953488372093
253,338,16384,2.3063063063063063
254,339,16384,2.359447004608295
255,340,16384,2.3591072714182864
256,341,16384,2.381049266095044
257,342,16384,2.3591072714182864
258,343,16384,2.3486238532110093
259,344,16384,2.359447004608295
260,345,16384,2.3486238532110093
261,346,16384,2.3486238532110093
262,347,16384,2.3269421957108367
263,352,16384,2.089795918367347
264,353,16384,2.327272727272727
265,354,16384,2.3378995433789953
266,355,16384,2.3813953488372093
267,356,16384,2.3813953488372093
268,357,16384,2.3378995433789953
269,358,16384,2.370027484449588
270,359,16384,2.3378995433789953
271,360,16384,2.3382331953760525
272,361,16384,2.3703703703703702
273,362,16384,2.359447004608295
274,363,16384,2.3378995433789953
275,368,16384,1.9997558891736849
276,369,16384,2.359447004608295
277,370,16384,2.3378995433789953
278,371,16384,2.3703703703703702
279,372,16384,2.3269421957108367
280,373,16384,2.359447004608295
281,374,16384,2.359447004608295
282,375,16384,2.359447004608295
283,376,16384,2.3269421957108367
284,377,16384,2.3486238532110093
285,378,16384,2.3486238532110093
286,379,16384,2.2755555555555556
287,384,16384,2.089795918367347
288,385,16384,2.381049266095044
289,386,16384,2.3703703703703702
290,387,16384,2.3703703703703702
291,388,16384,2.3486238532110093
292,389,16384,2.295964125560538
293,390,16384,2.3813953488372093
294,391,16384,2.3486238532110093
295,394,16384,2.2755555555555556
296,395,16384,2.359447004608295
297,396,16384,2.3486238532110093
298,397,16384,2.2956424267899678
299,398,16384,2.3703703703703702
300,399,16384,2.3486238532110093
301,404,16384,2.3486238532110093
302,405,16384,2.359447004608295
303,406,16384,2.359447004608295
304,407,16384,2.359447004608295
305,408,16384,2.348287229468253
306,409,16384,2.3703703703703702
307,410,16384,2.359447004608295
308,411,16384,2.3703703703703702
309,412,16384,2.3486238532110093
310,413,16384,2.359447004608295
311,414,16384,2.359447004608295
312,415,16384,2.359447004608295
313,420,16384,2.348287229468253
314,421,16384,2.2651735103000137
315,422,16384,2.370027484449588
316,423,16384,2.359447004608295
317,424,16384,2.3486238532110093
318,425,16384,2.3486238532110093
319,426,16384,2.359447004608295
320,427,16384,2.3591072714182864
321,428,16384,2.2755555555555556
322,429,16384,2.370027484449588
323,430,16384,2.3382331953760525
324,431,16384,2.3486238532110093
325,436,16384,2.3703703703703702
326,437,16384,2.359447004608295
327,438,16384,2.359447004608295
328,439,16384,2.3378995433789953
329,440,16384,2.359447004608295
330,441,16384,2.3703703703703702
331,442,16384,2.359447004608295
332,443,16384,2.327272727272727
333,444,16384,2.359447004608295
334,445,16384,2.3486238532110093
335,446,16384,2.3063063063063063
336,447,16384,2.370027484449588
337,452,16384,2.3703703703703702
338,453,16384,2.359447004608295
339,454,16384,2.359447004608295
340,455,16384,2.2555066079295156
341,456,16384,2.359447004608295
342,457,16384,2.359447004608295
343,458,16384,2.265486725663717
344,459,16384,2.3486238532110093
345,460,16384,2.359447004608295
346,461,16384,2.3486238532110093
347,462,16384,2.327272727272727
348,463,16384,2.3378995433789953
349,468,16384,2.370713355520185
350,469,16384,2.359447004608295
351,470,16384,2.359447004608295
352,471,16384,2.3063063063063063
353,472,16384,2.359447004608295
354,473,16384,2.3813953488372093
355,474,16384,2.359447004608295
356,475,16384,2.3269421957108367
357,476,16384,2.3378995433789953
358,477,16384,2.359447004608295
359,478,16384,2.359447004608295
360,479,16384,2.348287229468253
361,484,16384,2.327272727272727
362,485,16384,2.381049266095044
363,486,16384,2.3703703703703702
364,487,16384,2.359447004608295
365,488,16384,2.265486725663717
366,489,16384,2.359447004608295
367,490,16384,2.3703703703703702
368,491,16384,2.359447004608295
369,492,16384,2.3486238532110093
370,493,16384,2.359447004608295
371,494,16384,2.2956424267899678
372,495,16384,2.359447004608295
373,500,16384,2.245614035087719
374,501,16384,2.359447004608295
375,502,16384,2.3703703703703702
376,503,16384,2.348287229468253
377,504,16384,2.3703703703703702
378,505,16384,2.359447004608295
379,506,16384,2.3486238532110093
380,507,16384,2.3703703703703702
381,508,16384,2.359447004608295
382,509,16384,2.3703703703703702
383,510,16384,2.2755555555555556
384,511,16384,2.2755555555555556
385,516,16384,2.3486238532110093
386,517,16384,2.3703703703703702
387,518,16384,2.3486238532110093
388,519,16384,2.3486238532110093
389,520,16384,2.359447004608295
390,521,16384,2.2755555555555556
391,522,16384,2.3063063063063063
392,523,16384,2.3813953488372093
393,524,16384,2.3378995433789953
394,525,16384,2.3591072714182864
395,526,16384,2.3703703703703702
396,527,16384,2.316742081447964
397,532,16384,2.3486238532110093
398,533,16384,2.2453062902562695
399,534,16384,2.359447004608295
400,535,16384,2.348287229468253
401,536,16384,2.3486238532110093
402,537,16384,2.3703703703703702
403,538,16384,2.39217404000584
404,539,16384,2.3378995433789953
405,540,16384,2.359447004608295
406,541,16384,2.359447004608295
407,542,16384,2.3703703703703702
408,543,16384,2.3486238532110093
409,548,16384,2.359447004608295
410,549,16384,2.327272727272727
411,550,16384,2.3164145341439277
412,551,16384,2.3378995433789953
413,552,16384,2.3486238532110093
414,553,16384,2.3703703703703702
415,554,16384,2.3703703703703702
416,555,16384,2.3591072714182864
417,556,16384,2.3378995433789953
418,557,16384,2.370713355520185
419,558,16384,2.305981703026038
420,559,16384,2.3813953488372093
421,564,16384,2.3703703703703702
422,565,16384,2.327272727272727
423,566,16384,2.370027484449588
424,567,16384,2.316742081447964
425,568,16384,2.317069721397256
426,569,16384,2.359447004608295
427,570,16384,2.3813953488372093
428,571,16384,2.327272727272727
429,572,16384,2.381049266095044
430,573,16384,2.370027484449588
431,574,16384,2.359447004608295
432,575,16384,2.3378995433789953
433,580,16384,2.3703703703703702
434,581,16384,2.3813953488372093
435,582,16384,2.3813953488372093
436,583,16384,2.3486238532110093
437,584,16384,2.327272727272727
438,585,16384,2.3486238532110093
439,586,16384,2.316742081447964
440,587,16384,2.3703703703703702
441,588,16384,2.3378995433789953
442,589,16384,2.3378995433789953
443,590,16384,2.316742081447964
444,591,16384,2.327272727272727
445,596,16384,2.3703703703703702
446,597,16384,2.3378995433789953
447,598,16384,2.3486238532110093
448,599,16384,2.327272727272727
449,600,16384,2.327272727272727
450,601,16384,2.316742081447964
451,602,16384,2.3813953488372093
452,603,16384,2.3703703703703702
453,604,16384,2.2857142857142856
454,605,16384,2.3813953488372093
455,606,16384,2.359447004608295
456,607,16384,2.3486238532110093
457,612,16384,2.359447004608295
458,613,16384,2.3486238532110093
459,614,16384,2.359447004608295
460,615,16384,2.327272727272727
461,616,16384,2.3378995433789953
462,617,16384,2.370027484449588
463,618,16384,2.3703703703703702
464,619,16384,2.327272727272727
465,620,16384,2.3486238532110093
466,621,16384,2.327272727272727
467,622,16384,2.359447004608295
468,623,16384,2.327272727272727
469,628,16384,2.3378995433789953
470,629,16384,2.327272727272727
471,630,16384,2.3375659865886718
472,631,16384,2.3703703703703702
473,632,16384,2.327272727272727
474,633,16384,2.3375659865886718
475,634,16384,2.3591072714182864
476,635,16384,2.305981703026038
477,636,16384,2.3378995433789953
478,637,16384,2.359447004608295
479,638,16384,2.327272727272727
480,639,16384,2.3486238532110093
481,644,16384,2.3703703703703702
482,645,16384,2.265486725663717
483,646,16384,2.359447004608295
484,647,16384,2.3378995433789953
485,648,16384,2.359447004608295
486,649,16384,2.3703703703703702
487,650,16384,2.359447004608295
488,651,16384,2.3378995433789953
489,652,16384,2.359447004608295
490,653,16384,2.3378995433789953
491,654,16384,2.3378995433789953
492,655,16384,2.3378995433789953
493,660,16384,2.359447004608295
494,661,16384,2.3486238532110093
495,662,16384,2.327272727272727
496,663,16384,2.3591072714182864
497,664,16384,2.359447004608295
498,665,16384,2.370027484449588
499,666,16384,2.3378995433789953
500,667,16384,2.3703703703703702
501,668,16384,2.359447004608295
502,669,16384,2.3703703703703702
503,670,16384,2.3813953488372093
504,671,16384,2.3591072714182864
505,676,16384,2.359447004608295
506,677,16384,2.3378995433789953
507,678,16384,2.327272727272727
508,679,16384,2.3486238532110093
509,680,16384,2.359447004608295
510,681,16384,2.3813953488372093
511,682,16384,2.359447004608295
512,683,16384,2.2860332077577787
513,684,16384,2.359447004608295
514,685,16384,2.3813953488372093
515,686,16384,2.359447004608295
516,687,16384,2.265486725663717
517,692,16384,2.359447004608295
518,693,16384,2.3703703703703702
519,694,16384,2.3486238532110093
520,695,16384,2.3813953488372093
521,696,16384,2.3703703703703702
522,697,16384,2.359447004608295
523,698,16384,2.359447004608295
524,699,16384,2.359447004608295
525,700,16384,2.359447004608295
526,701,16384,2.348287229468253
527,702,16384,2.3703703703703702
528,703,16384,2.370713355520185
529,708,16384,2.316742081447964
530,709,16384,2.3703703703703702
531,710,16384,2.3063063063063063
532,711,16384,2.359447004608295
533,712,16384,2.3382331953760525
534,713,16384,2.359447004608295
535,714,16384,2.3378995433789953
536,715,16384,2.3486238532110093
537,716,16384,2.3486238532110093
538,717,16384,2.3486238532110093
539,718,16384,2.3703703703703702
540,719,16384,2.359447004608295
541,724,16384,2.295964125560538
542,725,16384,2.327272727272727
543,726,16384,2.359447004608295
544,727,16384,2.359447004608295
545,728,16384,2.3378995433789953
546,729,16384,2.3591072714182864
547,730,16384,2.3813953488372093
548,731,16384,2.359447004608295
549,732,16384,2.3703703703703702
550,733,16384,2.3063063063063063
551,734,16384,2.3703703703703702
552,735,16384,2.3063063063063063
553,740,16384,2.3703703703703702
554,741,16384,2.317069721397256
555,742,16384,2.370713355520185
556,743,16384,2.3486238532110093
557,744,16384,2.3378995433789953
558,745,16384,2.2857142857142856
559,746,16384,2.327272727272727
560,747,16384,2.359447004608295
561,748,16384,2.327272727272727
562,749,16384,2.348287229468253
563,750,16384,2.3591072714182864
564,751,16384,2.370027484449588
565,756,16384,2.3486238532110093
566,757,16384,2.359447004608295
567,758,16384,2.3703703703703702
568,759,16384,2.359447004608295
569,760,16384,2.359447004608295
570,761,16384,2.3703703703703702
571,762,16384,2.3486238532110093
572,763,16384,2.3703703703703702
573,764,16384,2.359447004608295
574,765,16384,2.359447004608295
575,766,16384,2.3703703703703702
576,767,16384,2.359447004608295
577,772,16384,2.348287229468253
578,773,16384,2.348287229468253
579,774,16384,2.359447004608295
580,775,16384,2.3378995433789953
581,776,16384,2.2857142857142856
582,777,16384,2.3486238532110093
583,778,16384,2.3378995433789953
584,779,16384,2.295964125560538
585,780,16384,2.3703703703703702
586,781,16384,2.2755555555555556
587,782,16384,2.305981703026038
588,783,16384,2.359447004608295
589,788,16384,2.403755868544601
590,789,16384,2.3486238532110093
591,790,16384,2.3703703703703702
592,791,16384,2.3375659865886718
593,792,16384,2.316742081447964
594,793,16384,2.3375659865886718
595,794,16384,2.327272727272727
596,795,16384,2.359447004608295
597,796,16384,2.2857142857142856
598,797,16384,2.359447004608295
599,798,16384,2.3703703703703702
600,799,16384,2.3378995433789953
601,804,16384,2.295964125560538
602,805,16384,2.359447004608295
603,806,16384,2.3703703703703702
604,807,16384,2.3375659865886718
605,808,16384,2.359447004608295
606,809,16384,2.3486238532110093
607,810,16384,2.3382331953760525
608,811,16384,2.359447004608295
609,812,16384,2.3486238532110093
610,813,16384,2.327272727272727
611,814,16384,2.3813953488372093
612,815,16384,2.3703703703703702
613,820,16384,2.3063063063063063
614,821,16384,2.359447004608295
615,822,16384,2.392523364485981
616,823,16384,2.3489605734767025
617,824,16384,2.3378995433789953
