idx,og Index,data (B),bandwidth (GB/s)
0,3,16785408,12.313067819623994
1,5,16785408,12.299498139915572
2,7,16785408,11.894522912609801
3,9,16785408,11.963974237987848
4,11,16785408,11.996535133234419
5,13,16785408,12.064419631787194
6,15,16785408,12.059141160005863
7,17,16785408,11.955248500733608
8,18,16785408,11.863854185220054
9,19,16785408,11.808037008168698
10,20,16785408,12.035898156619906
11,21,16785408,12.021829995330329
12,23,16785408,12.011360603265494
13,24,16785408,12.12997291508286
14,25,16785408,12.043359344730899
15,27,16785408,11.5847960925298
16,28,16785408,11.96233719216527
17,29,16785408,11.86010713051736
18,30,16785408,11.774639509075756
19,31,16785408,12.06801926809979
20,32,16785408,11.938378553688326
21,33,16785408,11.99214688861899
22,34,16785408,11.836013324269972
23,35,16785408,11.887783748870387
24,36,16785408,11.923461548570321
25,37,16785408,11.917493333181868
26,39,16785408,11.93267532822057
27,40,16785408,11.919388969525167
28,41,16785408,11.7648599150091
29,42,16785408,11.802457607812144
30,43,16785408,11.800590683067812
31,44,16785408,11.856345692546329
32,45,16785408,11.96533878514666
33,47,16785408,11.96370136590289
34,49,16785408,11.717030640843522
35,50,16785408,11.763285146033589
36,51,16785408,11.997358286660205
37,52,16785408,11.889400451623322
38,53,16785408,11.90478108785139
39,54,16785408,11.76011215448285
40,56,16785408,12.004505603039208
41,57,16785408,11.740116440099934
42,58,16785408,11.983927576999415
43,59,16785408,12.10394210439784
44,61,16785408,11.908564877220963
45,62,16785408,11.821608967442595
46,67,16793600,11.874478525872188
47,69,16793600,11.432391458110526
48,71,16793600,11.938498986262651
49,73,16793600,11.914647262985529
50,75,16793600,11.923309581758335
51,77,16793600,11.89331595869747
52,78,16793600,11.884167299433093
53,79,16793600,11.987585265640481
54,81,16793600,11.934155208827818
55,83,16793600,12.03459257411978
56,84,16793600,11.768498299925158
57,85,16793600,11.489457484095063
58,87,16793600,11.937412745485512
59,89,16793600,12.018056855622444
60,90,16793600,11.767178920874803
61,91,16793600,12.124117417733947
62,92,16793600,11.789383826102096
63,95,16793600,12.01916642511818
64,97,16793600,11.969813171242114
65,98,16793600,11.896820921448224
66,99,16793600,12.132254403411041
67,101,16793600,11.650410000971238
68,102,16793600,11.850614067523436
69,104,16793600,11.721186301086856
70,105,16793600,12.060313055668066
71,106,16793600,11.861059709293292
72,107,16793600,12.037629059588902
73,108,16793600,11.703411729615063
74,110,16793600,11.75716129971744
75,111,16793600,12.1232771888689
76,112,16793600,11.869912722893066
77,114,16793600,11.698715715969538
78,116,16793600,11.661023728116833
79,118,16793600,11.945836285363903
80,120,16793600,11.90896945319835
81,121,16793600,12.02108500141731
82,122,16793600,11.958630158056495
83,123,16793600,12.11796718675925
84,124,16793600,11.816991992344175
85,125,16793600,11.2938771255544
86,126,16793600,11.964628199976632
87,127,16793600,11.919788996113235
88,131,16801792,11.388844867262936
89,133,16801792,11.893996154684743
90,134,16801792,11.964736276914225
91,135,16801792,12.00248882208851
92,137,16801792,11.747886479974436
93,139,16801792,12.11240264252903
94,140,16801792,11.918024088864929
95,141,16801792,12.161780758061388
96,142,16801792,11.794339882237653
97,143,16801792,12.142374390416641
98,145,16801792,12.115756591566603
99,147,16801792,11.991789355281677
100,148,16801792,11.850240223889228
101,151,16801792,12.092605081087383
102,152,16801792,11.922083303767828
103,153,16801792,12.102072979241397
104,154,16801792,12.011816078674723
105,155,16801792,11.91694209834968
106,156,16801792,11.795664713101058
107,157,16801792,12.167990156566502
108,158,16801792,11.821691616218757
109,159,16801792,12.097062815219074
110,160,16801792,11.760517015583122
111,161,16801792,11.651954406881687
112,162,16801792,12.041015350657169
113,163,16801792,12.00248882208851
114,164,16801792,11.753935224535681
115,166,16801792,11.94731228365583
116,168,16801792,11.954384656760764
117,170,16801792,11.906942991668863
118,171,16801792,11.94187768841278
119,172,16801792,11.649886148375986
120,174,16801792,11.87274901141641
121,175,16801792,12.058722586377536
122,176,16801792,11.842756248502193
123,177,16801792,12.057883148609042
124,178,16801792,11.712508112486642
125,179,16801792,11.817434483534724
126,180,16801792,11.607134863285298
127,182,16801792,11.662824823618589
128,183,16801792,12.051794234692267
129,184,16801792,11.763160031925171
130,185,16801792,12.123309772365843
131,186,16801792,11.772655039139902
132,189,16801792,12.035219318478108
133,190,16801792,11.69555811097901
134,194,16809984,11.672910974005006
135,195,16809984,11.946069945336552
136,196,16809984,11.882836954032252
137,197,16809984,12.05905427081749
138,199,16809984,11.774162797392451
139,200,16809984,12.037500322241542
140,201,16809984,12.102115748460056
141,203,16809984,12.044961210315542
142,204,16809984,11.923834924598165
143,205,16809984,12.0687510230807
144,206,16809984,12.040811297887519
145,207,16809984,11.929792289415191
146,209,16809984,11.976027973064241
147,210,16809984,11.914910024978099
148,211,16809984,11.97002435307689
149,212,16809984,11.77178815803203
150,215,16809984,11.545913422738122
151,216,16809984,11.865926898479522
152,217,16809984,11.97439855480768
153,218,16809984,11.99462275056013
154,219,16809984,12.024274608656341
155,220,16809984,11.676551572758669
156,221,16809984,12.155049701257372
157,222,16809984,11.936569252050024
158,224,16809984,11.722149234747246
159,225,16809984,12.085132325495124
160,226,16809984,11.908967510662114
161,227,16809984,12.117190135545425
162,228,16809984,11.850401405412416
163,229,16809984,12.159832872667405
164,230,16809984,11.809375008781519
165,232,16809984,11.560396423632197
166,234,16809984,11.606115275554018
167,236,16809984,11.583857283434725
168,238,16809984,11.708302106521273
169,240,16809984,11.627445501052765
170,242,16809984,11.580792813150172
171,244,16809984,11.593564151920665
172,245,16809984,12.07929659767353
173,246,16809984,11.80459825002458
174,248,16809984,11.416933073344866
175,250,16809984,11.600732896493898
176,252,16809984,11.797705305533487
177,253,16809984,12.095428053360964
178,254,16809984,11.654531890878534
179,259,16818176,11.335531038257185
180,261,16818176,11.963590319964718
181,263,16818176,12.078803709643479
182,265,16818176,12.08268267520353
183,267,16818176,12.01062362750174
184,269,16818176,11.954066387092189
185,270,16818176,11.850028042940929
186,271,16818176,11.993895429273984
187,273,16818176,12.027656598192651
188,275,16818176,11.922339016789495
189,277,16818176,11.955697984229847
190,278,16818176,11.727338400390488
191,279,16818176,12.01034058221477
192,281,16818176,11.509295003178744
193,282,16818176,12.202761954307963
194,283,16818176,12.04006440200136
195,284,16818176,11.501990497860412
196,285,16818176,12.041986842595165
197,286,16818176,11.837741997923596
198,287,16818176,11.953522620337123
199,288,16818176,11.736504347583358
200,289,16818176,12.009800260073938
201,290,16818176,11.947544449401422
202,291,16818176,11.965233030755122
203,292,16818176,11.830023099886612
204,293,16818176,12.111649545043731
205,294,16818176,11.853235114189621
206,295,16818176,12.100216777093719
207,296,16818176,11.670309234283621
208,298,16818176,11.607675976820781
209,300,16818176,11.533288667280653
210,302,16818176,11.8023944195708
211,303,16818176,12.120019947594326
212,304,16818176,11.538099409928918
213,306,16818176,11.588472284906135
214,308,16818176,11.412079795510264
215,310,16818176,11.613575408038406
216,312,16818176,11.560941775890004
217,313,16818176,11.717141766317297
218,314,16818176,11.660987616657192
219,316,16818176,11.604336159293343
220,317,16818176,12.011713047477839
221,319,16818176,11.982683785285777
222,323,16826368,11.395616176734515
223,325,16826368,11.069126915888711
224,327,16826368,11.715266623360257
225,329,16826368,11.55843697300045
226,331,16826368,11.583645016477385
227,333,16826368,11.710317603926274
228,334,16826368,11.835785410212907
229,335,16826368,12.143005187329868
230,337,16826368,12.102758269485834
231,339,16826368,12.12620315306096
232,340,16826368,11.742999612669545
233,341,16826368,11.710839214376191
234,343,16826368,12.072470547719153
235,344,16826368,11.638005494490294
236,346,16826368,11.756660750967706
237,347,16826368,12.167459807259966
238,348,16826368,11.58875888801038
239,351,16826368,12.05033731039718
240,352,16826368,11.614861119643706
241,355,16826368,11.613329983628779
242,357,16826368,12.093016302863566
243,358,16826368,11.776672256485917
244,359,16826368,12.191147446913952
245,360,16826368,11.629760643389684
246,362,16826368,11.697284295630473
247,365,16826368,12.23369288620428
248,368,16883712,11.977287882614334
249,369,16883712,12.142065452055858
250,371,16883712,11.914984668475634
251,373,16883712,12.074732454722557
252,375,16883712,11.963411912173283
253,377,16883712,11.500186973180076
254,379,16883712,12.089967390043437
255,380,16883712,11.996913321462221
256,381,16883712,12.10997282310488
257,382,16883712,11.901797918348214
258,383,16883712,11.975104635006288
259,384,16883712,11.994194608487721
260,385,16883712,11.350554864976244
261,387,16883712,12.011414025934112
262,388,16883712,11.71888359140906
263,389,16883712,12.004027005966567
264,391,16883712,11.899918875620326
265,392,16883712,11.789420762554753
266,393,16883712,11.175996483777185
267,397,16891904,11.58364209277527
268,399,16891904,11.986083802303709
269,401,16891904,11.958353656939417
270,403,16891904,11.90084451950032
271,405,16891904,12.139279113019832
272,407,16891904,11.997005703084495
273,409,16891904,12.033970584568475
274,411,16891904,11.480454164236946
275,413,16891904,12.107216707652633
276,414,16891904,11.973017320997341
277,415,16891904,12.1030527924521
278,417,16891904,11.979011789734953
279,418,16891904,11.839643827397591
280,421,16891904,12.03616570556829
281,422,16891904,11.884759672076706
282,423,16891904,12.077265769279443
283,425,16891904,11.976837464486547
284,426,16891904,11.839378281920665
285,427,16891904,11.512549922985702
286,428,16891904,11.855090833166651
287,429,16891904,12.059856982933907
288,430,16891904,11.898170466279637
289,431,16891904,12.02464168613599
290,432,16891904,12.049379052564753
291,433,16891904,12.072009387805858
292,435,16891904,11.597910277034538
293,436,16891904,12.023272267594065
294,437,16891904,12.000278483062973
295,438,16891904,11.759618443742243
296,439,16891904,11.926969140239416
297,440,16891904,11.900584605803223
298,442,16891904,11.862825295518899
299,444,16891904,11.8176192105265
300,447,16891904,11.967859751643536
301,448,16891904,12.010935901255495
302,449,16891904,11.64840002537672
303,451,16891904,12.009304918070082
304,452,16891904,11.948330180951883
305,453,16891904,11.933457105152355
306,455,16891904,11.88769540527968
307,456,16891904,11.737360135134665
