idx,og Index,data (B),bandwidth (GB/s)
0,4,16384,2.098360655737705
1,5,16384,2.2857142857142856
2,6,16384,2.3378995433789953
3,7,16384,2.2755555555555556
4,8,16384,2.3378995433789953
5,9,16384,2.3703703703703702
6,10,16384,2.3378995433789953
7,11,16384,2.2755555555555556
8,12,16384,2.3486238532110093
9,13,16384,2.359447004608295
10,14,16384,2.392523364485981
11,15,16384,2.3378995433789953
12,20,16384,2.048
13,21,16384,2.381049266095044
14,22,16384,2.3486238532110093
15,23,16384,2.3703703703703702
16,24,16384,1.4970760233918128
17,25,16384,2.348287229468253
18,26,16384,2.3486238532110093
19,27,16384,2.3486238532110093
20,28,16384,2.3486238532110093
21,29,16384,2.2755555555555556
22,30,16384,2.3378995433789953
23,31,16384,2.359447004608295
24,36,16384,2.0237154150197627
25,37,16384,2.3591072714182864
26,38,16384,2.3378995433789953
27,39,16384,2.392523364485981
28,40,16384,2.348287229468253
29,41,16384,2.359447004608295
30,42,16384,2.327272727272727
31,43,16384,2.3703703703703702
32,44,16384,2.3378995433789953
33,45,16384,2.359447004608295
34,46,16384,2.3486238532110093
35,47,16384,2.3486238532110093
36,52,16384,2.0810364537025277
37,53,16384,2.359447004608295
38,54,16384,2.3486238532110093
39,55,16384,2.3703703703703702
40,56,16384,2.381049266095044
41,57,16384,2.226086956521739
42,58,16384,2.359447004608295
43,59,16384,2.3703703703703702
44,60,16384,2.3378995433789953
45,61,16384,2.3703703703703702
46,62,16384,2.3703703703703702
47,63,16384,2.3703703703703702
48,68,16384,2.098360655737705
49,69,16384,2.3813953488372093
50,70,16384,2.359447004608295
51,71,16384,2.370027484449588
52,72,16384,2.3703703703703702
53,73,16384,2.359447004608295
54,74,16384,2.3378995433789953
55,75,16384,2.370027484449588
56,76,16384,2.3703703703703702
57,77,16384,2.3378995433789953
58,78,16384,2.359447004608295
59,79,16384,2.3813953488372093
60,84,16384,2.0562248995983934
61,85,16384,2.295964125560538
62,86,16384,2.3382331953760525
63,87,16384,2.3375659865886718
64,88,16384,2.2755555555555556
65,89,16384,2.3378995433789953
66,90,16384,2.3591072714182864
67,91,16384,2.327272727272727
68,92,16384,2.359447004608295
69,93,16384,2.359447004608295
70,94,16384,2.3378995433789953
71,95,16384,2.3813953488372093
72,100,16384,2.1069958847736627
73,101,16384,2.3378995433789953
74,102,16384,2.3063063063063063
75,103,16384,2.3703703703703702
76,104,16384,2.348287229468253
77,105,16384,2.359447004608295
78,106,16384,2.348287229468253
79,107,16384,2.359447004608295
80,108,16384,2.3486238532110093
81,109,16384,2.3486238532110093
82,110,16384,2.359447004608295
83,111,16384,2.3486238532110093
84,116,16384,2.0980919451914457
85,117,16384,2.265486725663717
86,118,16384,2.3378995433789953
87,119,16384,2.3813953488372093
88,120,16384,2.3486238532110093
89,121,16384,2.3813953488372093
90,122,16384,2.3378995433789953
91,123,16384,2.3378995433789953
92,124,16384,2.359447004608295
93,125,16384,2.3591072714182864
94,126,16384,2.2555066079295156
95,127,16384,2.3703703703703702
96,132,16384,2.115702479338843
97,133,16384,2.3703703703703702
98,134,16384,2.3378995433789953
99,135,16384,2.359447004608295
100,136,16384,2.3486238532110093
101,137,16384,2.3813953488372093
102,138,16384,2.3486238532110093
103,139,16384,2.3486238532110093
104,140,16384,2.359447004608295
105,141,16384,2.359447004608295
106,142,16384,2.3378995433789953
107,143,16384,2.359447004608295
108,148,16384,2.089795918367347
109,149,16384,2.3703703703703702
110,150,16384,2.3378995433789953
111,151,16384,2.3703703703703702
112,152,16384,2.359447004608295
113,153,16384,2.3813953488372093
114,154,16384,2.3378995433789953
115,155,16384,2.3703703703703702
116,156,16384,2.359447004608295
117,157,16384,2.3813953488372093
118,158,16384,2.2853954526433253
119,159,16384,2.3703703703703702
120,164,16384,2.0728744939271255
121,165,16384,2.348287229468253
122,166,16384,2.295964125560538
123,167,16384,2.3703703703703702
124,168,16384,2.359447004608295
125,169,16384,2.3486238532110093
126,170,16384,2.359447004608295
127,171,16384,2.2755555555555556
128,172,16384,2.3378995433789953
129,173,16384,2.3063063063063063
130,174,16384,2.3486238532110093
131,175,16384,2.370713355520185
132,180,16384,2.098360655737705
133,181,16384,2.3703703703703702
134,182,16384,2.3486238532110093
135,183,16384,2.3813953488372093
136,184,16384,2.3378995433789953
137,185,16384,2.3813953488372093
138,186,16384,2.3703703703703702
139,187,16384,2.3486238532110093
140,188,16384,2.4150943396226414
141,189,16384,2.3378995433789953
142,190,16384,2.370027484449588
143,191,16384,2.3703703703703702
144,196,16384,2.1069958847736627
145,197,16384,2.3063063063063063
146,198,16384,2.3703703703703702
147,199,16384,2.316742081447964
148,200,16384,2.2555066079295156
149,201,16384,2.3269421957108367
150,202,16384,2.370027484449588
151,203,16384,2.348287229468253
152,204,16384,2.3378995433789953
153,205,16384,2.3378995433789953
154,206,16384,2.359447004608295
155,207,16384,2.3703703703703702
156,212,16384,2.098360655737705
157,213,16384,2.3378995433789953
158,214,16384,2.359447004608295
159,215,16384,2.381049266095044
160,216,16384,2.3486238532110093
161,217,16384,2.3486238532110093
162,218,16384,2.359447004608295
163,219,16384,2.3378995433789953
164,220,16384,2.3378995433789953
165,221,16384,2.370027484449588
166,222,16384,2.3378995433789953
167,223,16384,2.4380952380952383
168,228,16384,2.12448132780083
169,229,16384,2.3063063063063063
170,230,16384,2.3486238532110093
171,231,16384,2.3703703703703702
172,232,16384,2.3703703703703702
173,233,16384,2.3703703703703702
174,234,16384,2.359447004608295
175,235,16384,2.3591072714182864
176,236,16384,2.359447004608295
177,237,16384,2.359447004608295
178,238,16384,2.327272727272727
179,239,16384,2.3378995433789953
180,244,16384,2.1069958847736627
181,245,16384,2.381049266095044
182,246,16384,2.226086956521739
183,247,16384,2.3703703703703702
184,248,16384,2.295964125560538
185,249,16384,2.295964125560538
186,250,16384,2.3703703703703702
187,251,16384,2.3703703703703702
188,252,16384,2.3486238532110093
189,253,16384,2.3703703703703702
190,254,16384,2.3486238532110093
191,255,16384,2.3703703703703702
192,260,16384,2.098360655737705
193,261,16384,2.327272727272727
194,262,16384,2.3378995433789953
195,263,16384,2.3703703703703702
196,264,16384,2.392523364485981
197,265,16384,2.327272727272727
198,266,16384,2.3486238532110093
199,267,16384,2.3486238532110093
200,268,16384,2.359447004608295
201,269,16384,2.3813953488372093
202,270,16384,2.316742081447964
203,271,16384,2.2853954526433253
204,276,16384,2.115702479338843
205,277,16384,2.3813953488372093
206,278,16384,2.3378995433789953
207,279,16384,2.359447004608295
208,280,16384,2.359447004608295
209,281,16384,2.327272727272727
210,282,16384,2.348287229468253
211,283,16384,2.359447004608295
212,284,16384,2.359447004608295
213,285,16384,2.359447004608295
214,286,16384,2.3591072714182864
215,287,16384,2.3703703703703702
216,292,16384,2.0477440319960003
217,293,16384,2.3813953488372093
218,294,16384,2.3486238532110093
219,295,16384,2.381049266095044
220,296,16384,2.359447004608295
221,297,16384,2.359447004608295
222,298,16384,2.3489605734767025
223,299,16384,2.359447004608295
224,300,16384,2.3378995433789953
225,301,16384,2.3703703703703702
226,302,16384,2.2755555555555556
227,303,16384,2.3703703703703702
228,308,16384,2.0237154150197627
229,309,16384,2.359447004608295
230,310,16384,2.3378995433789953
231,311,16384,2.3813953488372093
232,312,16384,2.3486238532110093
233,313,16384,2.3378995433789953
234,314,16384,2.3486238532110093
235,315,16384,2.359447004608295
236,316,16384,2.327272727272727
237,317,16384,2.3813953488372093
238,318,16384,2.3591072714182864
239,319,16384,2.359447004608295
240,324,16384,2.0813008130081303
241,325,16384,2.359447004608295
242,326,16384,2.2857142857142856
243,327,16384,2.370027484449588
244,328,16384,2.2857142857142856
245,329,16384,2.3378995433789953
246,330,16384,2.348287229468253
247,331,16384,2.3378995433789953
248,332,16384,2.327272727272727
249,333,16384,2.359447004608295
250,334,16384,2.359447004608295
251,335,16384,2.3813953488372093
252,340,16384,2.089795918367347
253,341,16384,2.348287229468253
254,342,16384,2.2857142857142856
255,343,16384,2.359447004608295
256,344,16384,2.3591072714182864
257,345,16384,2.3486238532110093
258,346,16384,2.359447004608295
259,347,16384,2.3703703703703702
260,348,16384,2.359447004608295
261,349,16384,2.3486238532110093
262,350,16384,2.3378995433789953
263,351,16384,2.327272727272727
264,356,16384,2.0980919451914457
265,357,16384,2.370027484449588
266,358,16384,2.3378995433789953
267,359,16384,2.403755868544601
268,360,16384,2.3378995433789953
269,361,16384,2.3378995433789953
270,362,16384,2.3378995433789953
271,363,16384,2.359447004608295
272,364,16384,2.359447004608295
273,365,16384,2.3813953488372093
274,366,16384,2.3486238532110093
275,367,16384,2.3703703703703702
276,372,16384,2.115702479338843
277,373,16384,2.3703703703703702
278,374,16384,2.359447004608295
279,375,16384,2.3703703703703702
280,376,16384,2.359447004608295
281,377,16384,2.327272727272727
282,378,16384,2.3378995433789953
283,379,16384,2.3378995433789953
284,380,16384,2.3703703703703702
285,381,16384,2.359447004608295
286,382,16384,2.3486238532110093
287,383,16384,2.2555066079295156
288,388,16384,2.1069958847736627
289,389,16384,2.305981703026038
290,390,16384,2.3703703703703702
291,391,16384,2.3813953488372093
292,392,16384,2.2857142857142856
293,393,16384,2.3486238532110093
294,394,16384,2.359447004608295
295,395,16384,2.295964125560538
296,396,16384,2.359447004608295
297,397,16384,2.316742081447964
298,398,16384,2.359447004608295
299,399,16384,2.359447004608295
300,404,16384,2.1154293092317626
301,405,16384,2.3269421957108367
302,406,16384,2.3378995433789953
303,407,16384,2.3378995433789953
304,408,16384,2.3703703703703702
305,409,16384,2.2555066079295156
306,410,16384,2.359447004608295
307,411,16384,2.3703703703703702
308,412,16384,2.359447004608295
309,413,16384,2.370027484449588
310,414,16384,2.2857142857142856
311,415,16384,2.3378995433789953
312,420,16384,2.0813008130081303
313,421,16384,2.359447004608295
314,422,16384,2.3486238532110093
315,423,16384,2.3703703703703702
316,424,16384,2.3375659865886718
317,425,16384,2.359447004608295
318,426,16384,2.359447004608295
319,427,16384,2.3489605734767025
320,428,16384,2.370027484449588
321,429,16384,2.3703703703703702
322,430,16384,2.359447004608295
323,431,16384,2.3486238532110093
324,436,16384,2.0813008130081303
325,437,16384,2.3486238532110093
326,438,16384,2.3703703703703702
327,439,16384,2.359447004608295
328,440,16384,2.3813953488372093
329,441,16384,2.3375659865886718
330,442,16384,2.348287229468253
331,443,16384,2.392872791003359
332,444,16384,2.2555066079295156
333,445,16384,2.295964125560538
334,446,16384,2.3378995433789953
335,447,16384,2.3813953488372093
336,452,16384,2.1069958847736627
337,453,16384,2.3703703703703702
338,454,16384,2.359447004608295
339,455,16384,2.2956424267899678
340,456,16384,2.3813953488372093
341,457,16384,2.348287229468253
342,458,16384,2.265486725663717
343,459,16384,2.370027484449588
344,460,16384,2.3378995433789953
345,461,16384,2.3063063063063063
346,462,16384,2.348287229468253
347,463,16384,2.370027484449588
348,468,16384,2.089795918367347
349,469,16384,2.3591072714182864
350,470,16384,2.3486238532110093
351,471,16384,2.3703703703703702
352,472,16384,2.3378995433789953
353,473,16384,2.2755555555555556
354,474,16384,2.3378995433789953
355,475,16384,2.370027484449588
356,476,16384,2.327272727272727
357,477,16384,2.3486238532110093
358,478,16384,2.3269421957108367
359,479,16384,2.3703703703703702
360,484,16384,2.098360655737705
361,485,16384,2.3375659865886718
362,486,16384,2.359447004608295
363,487,16384,2.3813953488372093
364,488,16384,2.3489605734767025
365,489,16384,2.3703703703703702
366,490,16384,2.3591072714182864
367,491,16384,2.359447004608295
368,492,16384,2.3378995433789953
369,493,16384,2.3378995433789953
370,494,16384,2.359447004608295
371,495,16384,2.3486238532110093
372,500,16384,2.0810364537025277
373,501,16384,2.3703703703703702
374,502,16384,2.359447004608295
375,503,16384,2.3486238532110093
376,504,16384,2.3378995433789953
377,505,16384,2.3591072714182864
378,506,16384,2.359447004608295
379,507,16384,2.3703703703703702
380,508,16384,2.3378995433789953
381,509,16384,2.3486238532110093
382,510,16384,2.3703703703703702
383,511,16384,2.3378995433789953
384,1036,16384,2.3486238532110093
385,1037,16384,2.359447004608295
386,1038,16384,2.370713355520185
387,1039,16384,2.3703703703703702
388,1044,16384,2.1067249582101066
389,1045,16384,2.4380952380952383
390,1046,16384,2.316742081447964
391,1047,16384,2.359447004608295
392,1048,16384,2.359447004608295
393,1049,16384,2.2857142857142856
394,1050,16384,2.3378995433789953
395,1051,16384,2.3486238532110093
396,1052,16384,2.3378995433789953
397,1053,16384,2.3813953488372093
398,1054,16384,2.348287229468253
399,1055,16384,2.3164145341439277
400,1060,16384,2.098360655737705
401,1061,16384,2.3591072714182864
402,1062,16384,2.348287229468253
403,1063,16384,2.316742081447964
404,1064,16384,2.3703703703703702
405,1065,16384,2.3486238532110093
406,1066,16384,2.3486238532110093
407,1067,16384,2.3813953488372093
408,1068,16384,2.305981703026038
409,1069,16384,2.3703703703703702
410,1070,16384,2.359447004608295
411,1071,16384,2.359447004608295
412,1076,16384,2.226086956521739
413,1077,16384,2.359447004608295
