idx,og Index,data (B),bandwidth (GB/s)
0,2,33570816,22.56411056078215
1,4,33570816,23.37816837164604
2,6,33570816,22.897024550442822
3,8,33570816,24.153786159648543
4,10,33570816,23.792788770246766
5,12,33570816,24.033160230059835
6,14,33570816,23.539734695337184
7,16,33570816,24.19389236177674
8,18,33570816,23.78092330360495
9,20,33570816,24.04252350838997
10,22,33570816,24.072314141441666
11,27,33570816,25.303789596980803
12,29,33570816,25.24229685031614
13,31,33570816,25.290388680547288
14,33,33570816,25.266614634410683
15,35,33570816,25.252645182255428
16,37,33570816,25.224695706796528
17,39,33570816,25.291589037112264
18,41,33570816,25.22226988900818
19,45,33570816,25.190190696438943
20,47,33570816,25.262374650647235
21,49,33570816,25.208955156634143
22,51,33570816,25.305029374829456
23,53,33570816,25.25019499415958
24,55,33570816,25.329449126166562
25,56,33570816,23.774995007159944
26,58,33570816,24.522467059464624
27,60,33570816,24.336448110328348
28,62,33570816,24.60990618113682
29,66,33587200,22.984937759620056
30,68,33587200,23.44183267738655
31,70,33587200,23.030833307048063
32,72,33587200,23.861222529599903
33,74,33587200,23.496918352070406
34,76,33587200,23.676066921657338
35,78,33587200,23.4502124938123
36,83,33587200,25.254027522342543
37,85,33587200,25.28566373813342
38,87,33587200,25.325931723618947
39,89,33587200,25.183738901060668
40,90,33587200,22.77200200144549
41,92,33587200,22.850844816970497
42,94,33587200,23.0809722441743
43,96,33587200,23.587229108744154
44,98,33587200,23.171688307566853
45,100,33587200,23.256918627235784
46,102,33587200,23.384887883821936
47,104,33587200,23.230650692274388
48,106,33587200,23.236307837909262
49,108,33587200,23.30958458427197
50,110,33587200,23.222940840520668
51,112,33587200,23.42559747576689
52,114,33587200,23.028306815548387
53,116,33587200,23.364066006380263
54,118,33587200,23.18600467486494
55,120,33587200,23.983901811331858
56,122,33587200,24.072462791721076
57,124,33587200,24.17837773244204
58,126,33587200,23.909054022309384
59,130,33603584,23.21372447971572
60,132,33603584,23.66679578719622
61,134,33603584,23.137004655825567
62,139,33603584,25.254174949177635
63,141,33603584,25.25662351952595
64,143,33603584,25.274841353353487
65,145,33603584,25.237180917018335
66,146,33603584,22.625049991987815
67,148,33603584,23.295104321127585
68,151,33603584,25.262699542763837
69,152,33603584,23.121721503797474
70,154,33603584,23.119701182212662
71,156,33603584,23.04004563636538
72,158,33603584,23.11052668499723
73,160,33603584,23.65293581869143
74,162,33603584,23.28064386284452
75,164,33603584,23.322508956692776
76,166,33603584,23.505749200819814
77,168,33603584,23.207568175320002
78,170,33603584,23.326653551451304
79,172,33603584,22.990611799767656
80,174,33603584,23.2672323601605
81,176,33603584,23.43754768962511
82,178,33603584,23.033491648850745
83,180,33603584,23.275467641546157
84,182,33603584,23.22604689225784
85,184,33603584,24.050540828953764
86,186,33603584,23.96165403347143
87,188,33603584,24.070404153421
88,190,33603584,23.980805983143863
89,194,33619968,23.518789165956626
90,197,33619968,25.24647097253824
91,201,33619968,25.251913236086086
92,202,33619968,22.98521479095194
93,204,33619968,23.205036919649206
94,206,33619968,23.41709351940723
95,208,33619968,23.47674598862892
96,210,33619968,23.387397088746283
97,212,33619968,23.71253775177844
98,214,33619968,23.57261311289203
99,216,33619968,23.175348354355688
100,218,33619968,23.558869901938387
101,220,33619968,23.547253541546723
102,222,33619968,23.604919826045197
103,224,33619968,23.914403142307194
104,226,33619968,23.767253190060444
105,228,33619968,23.82060136802085
106,230,33619968,23.84276525278887
107,232,33619968,23.702908226933353
108,234,33619968,23.628809463902424
109,236,33619968,23.9738839868279
110,238,33619968,23.764027646030158
111,240,33619968,23.799556854944324
112,242,33619968,23.76187776968909
113,244,33619968,23.85792528105117
114,246,33619968,23.728068454342832
115,248,33619968,24.70969970557064
116,250,33619968,24.82061367955243
117,252,33619968,24.757427787698596
118,254,33619968,24.74228697842076
119,258,33636352,23.18868842852711
120,260,33636352,23.128481509647767
121,262,33636352,23.216361441475517
122,264,33636352,23.615892607648615
123,266,33636352,23.233295458862454
124,268,33636352,23.371724372737443
125,270,33636352,23.49291155118923
126,272,33636352,23.387324697718725
127,274,33636352,23.35666382893624
128,276,33636352,23.683468920172984
129,278,33636352,23.448365477251084
130,280,33636352,23.487137233105095
131,282,33636352,23.533411413403186
132,284,33636352,23.466687503401086
133,286,33636352,23.58939343997868
134,288,33636352,23.905923825362642
135,290,33636352,23.687738646046803
136,292,33636352,23.569822310233242
137,294,33636352,23.736951376313826
138,296,33636352,23.453597421776838
139,298,33636352,23.5872760753921
140,300,33636352,23.494486858004986
141,302,33636352,23.52867045796347
142,303,33636352,25.235105809130186
143,304,33636352,23.625446888253002
144,306,33636352,23.398794455748597
145,308,33636352,23.6770672166574
146,310,33636352,23.44052193571137
147,312,33636352,24.25454749979449
148,314,33636352,24.247815909993648
149,316,33636352,24.404337536113484
150,318,33636352,24.227713344406492
151,322,33652736,23.59400024959231
152,324,33652736,23.506456241033
153,326,33652736,23.590295468087344
154,328,33652736,23.777508658831444
155,330,33652736,23.516969275987808
156,332,33652736,23.553839068617638
157,334,33652736,23.65448284539239
158,336,33652736,23.67633389288895
159,338,33652736,23.49700254291607
160,340,33652736,23.804941263518728
161,342,33652736,23.4907043008576
162,344,33652736,23.57918810108028
163,346,33652736,23.48808102973426
164,348,33652736,23.458740371545083
165,350,33652736,23.62261915291191
166,352,33652736,23.98520949181148
167,354,33652736,23.575999971977314
168,356,33652736,23.674734885631835
169,358,33652736,23.72335111441339
170,360,33652736,23.50593083601668
171,362,33652736,23.641205554283243
172,364,33652736,23.41069667073393
173,367,33652736,25.22620103310323
174,368,33652736,23.39665048385067
175,370,33652736,23.287833597909593
176,372,33652736,23.600883646232933
177,374,33652736,23.414345251762022
178,376,33652736,24.201008089599014
179,378,33652736,24.052134212147593
180,380,33652736,24.237838491888006
181,382,33652736,24.21438166965634
182,386,33669120,23.69212798446285
183,388,33669120,23.905833971170246
184,390,33669120,23.773480190955393
185,392,33669120,24.329262212279264
186,394,33669120,23.73113688297079
187,396,33669120,23.51895186696601
188,398,33669120,23.92485962341699
189,400,33669120,23.72204114934074
190,402,33669120,23.704938669700677
191,404,33669120,23.89823218019752
192,406,33669120,23.893890469871053
193,408,33669120,23.740775265512998
194,410,33669120,23.83921174899564
195,412,33669120,23.947730418466765
196,414,33669120,23.882484041870274
197,416,33669120,24.20946516320065
198,418,33669120,23.98977397579442
199,420,33669120,24.010012158639945
200,422,33669120,23.937923297106757
201,424,33669120,23.765979103462005
202,426,33669120,23.92756304157336
203,428,33669120,24.071534434204064
204,430,33669120,23.737561601534132
205,432,33669120,23.535260474408318
206,434,33669120,23.59384175525392
207,436,33669120,23.58483442200935
208,438,33669120,23.70814350596768
209,440,33669120,24.691817239108403
210,442,33669120,24.760948015358515
211,444,33669120,24.673848920573338
212,446,33669120,24.749881466507397
213,450,33685504,23.488917803615085
214,452,33685504,23.3115416182819
215,454,33685504,23.466908914087387
216,456,33685504,23.650401949013908
217,458,33685504,23.43662222692239
218,460,33685504,23.42671238116433
219,462,33685504,23.76466106322427
220,464,33685504,23.56568982041793
221,466,33685504,23.526189561609968
222,468,33685504,23.88544799878607
223,470,33685504,23.610617434517177
224,472,33685504,23.558817132182675
225,474,33685504,23.515678513337104
226,476,33685504,23.488917803615085
227,478,33685504,23.640841442754017
228,480,33685504,23.962093722857652
229,482,33685504,23.654653545441395
230,484,33685504,23.59897268767155
231,486,33685504,23.715405313692
232,488,33685504,23.595269949384928
233,490,33685504,23.67007840486366
234,492,33685504,23.44706270507607
235,494,33685504,23.54406346912059
236,496,33685504,23.85405516411146
237,498,33685504,23.47896369301113
238,500,33685504,23.64721425452544
239,504,33685504,24.24411737187192
240,506,33685504,24.272610082584006
241,508,33685504,24.409396371941895
242,510,33685504,24.224032815037155
243,514,33701888,23.557638887918056
244,516,33701888,23.49667230462252
245,518,33701888,23.431849121250593
246,520,33701888,23.7290616843592
247,522,33701888,23.451676248610028
248,524,33701888,23.48146357267524
249,526,33701888,23.574512972250787
250,528,33701888,23.49665592295202
251,530,33701888,23.259524483246487
252,532,33701888,23.706644944999443
253,534,33701888,23.477815751965547
254,536,33701888,23.508194274226906
255,538,33701888,23.428200411812714
256,540,33701888,23.315135171782103
257,542,33701888,23.44228027049624
258,544,33701888,23.86457576542932
259,546,33701888,23.503489061377632
260,548,33701888,23.546578391740017
261,550,33701888,23.639598387827622
262,552,33701888,23.554477686003555
263,554,33701888,23.592996702765895
264,556,33701888,23.44332389624302
265,558,33701888,23.461079761810286
266,560,33701888,23.71305017175167
267,562,33701888,23.38138945662475
268,564,33701888,23.6342934723915
269,566,33701888,23.45218214853098
270,568,33701888,24.26037918936001
271,570,33701888,24.26539236093361
272,572,33701888,24.408251120036965
273,574,33701888,24.202380892536677
274,578,33718272,23.81196902308015
275,580,33718272,23.988696561586238
276,582,33718272,23.78992672157727
277,584,33718272,24.377162662278746
278,586,33718272,23.752923125909625
279,588,33718272,23.785093628625965
280,590,33718272,24.055493130777414
281,592,33718272,23.71069778562237
282,594,33718272,23.67766390881245
283,596,33718272,23.827584598620305
284,598,33718272,23.844299774698005
285,600,33718272,23.869670019588007
286,602,33718272,23.83459133456518
287,604,33718272,23.832434976950903
288,606,33718272,23.87888281892902
289,608,33718272,24.094548079018733
290,610,33718272,23.948878031318387
291,612,33718272,23.973960044196254
292,614,33718272,23.940732998865386
293,616,33718272,23.871850021593378
294,618,33718272,23.727783618545775
295,620,33718272,24.111657282279598
296,622,33718272,23.92605533361244
297,624,33718272,23.78563054197617
298,626,33718272,23.68671242211154
299,628,33718272,23.676599832317265
300,630,33718272,23.76737232312595
301,632,33718272,24.739457127449217
302,634,33718272,24.792427775118508
303,636,33718272,24.724382335385982
304,638,33718272,24.794761360252078
305,642,33734656,23.34814174996228
306,644,33734656,23.229298617451864
307,646,33734656,23.417623755090876
308,648,33734656,23.41920067755663
309,650,33734656,23.36677236715056
310,652,33734656,23.337788093352103
311,654,33734656,23.585819418944638
312,656,33734656,23.432214326894357
313,658,33734656,23.406201475087943
314,660,33734656,23.707814979471994
315,662,33734656,23.49697639203679
316,664,33734656,23.442635664301648
317,666,33734656,23.444721044240676
318,668,33734656,23.40776061738555
319,670,33734656,23.571580496353302
320,672,33734656,23.907281182541944
321,674,33734656,23.57579764372403
322,676,33734656,23.58159868582014
323,678,33734656,23.65408795329576
324,680,33734656,23.48702995871365
325,682,33734656,23.482844505577884
326,684,33734656,23.518468477889556
327,686,33734656,23.386470301964803
328,688,33734656,23.76232222981397
329,690,33734656,23.512174042741226
330,692,33734656,23.649842753406777
331,694,33734656,23.515845387055172
332,696,33734656,24.27667997274018
333,698,33734656,24.22034673465329
334,700,33734656,24.399185889915767
335,702,33734656,24.302441146934193
336,706,33751040,23.543546895207587
337,708,33751040,23.499484071670175
338,710,33751040,23.480127727958926
339,712,33751040,23.762614919505303
340,714,33751040,23.414450051406142
341,716,33751040,23.43578099503524
342,718,33751040,23.724114274306977
343,720,33751040,23.556692756208655
344,722,33751040,23.46026509630229
345,724,33751040,23.75457041447105
346,726,33751040,23.6905595853613
347,728,33751040,23.380712164938743
348,730,33751040,23.545649246911253
349,732,33751040,23.25492817032418
350,734,33751040,23.610463835130588
351,736,33751040,23.853977165909725
352,738,33751040,23.658144389442413
353,740,33751040,23.64647541753134
354,742,33751040,23.70706694669411
355,744,33751040,23.57933801039834
356,746,33751040,23.6199977885365
357,748,33751040,23.423793815892573
358,750,33751040,23.586720281997632
359,752,33751040,23.62952290137796
360,754,33751040,23.357929340115575
361,756,33751040,23.64647541753134
362,758,33751040,23.54668413602378
363,760,33751040,24.273954238353536
364,762,33751040,24.327125242272682
365,764,33751040,24.38223814102541
366,766,33751040,24.29406501683257
367,770,33767424,23.822454499662072
368,772,33767424,24.0466584914609
369,774,33767424,23.783259308718563
370,776,33767424,24.325468915125228
371,778,33767424,23.87473609934684
372,780,33767424,23.785939795919806
373,782,33767424,24.052670605707693
374,784,33767424,23.797187672440586
375,786,33767424,23.82137893767028
376,788,33767424,24.04830253178079
377,790,33767424,23.954405832920703
378,792,33767424,23.730293112911262
379,794,33767424,23.74739897970522
380,796,33767424,23.918027933174574
381,798,33767424,23.893656977805577
382,800,33767424,24.3321998577571
383,802,33767424,23.89255807141144
384,805,33767424,25.209973966868418
385,806,33767424,23.61137068274721
386,808,33767424,23.588674895739462
387,810,33767424,23.58865841757416
388,812,33767424,23.942448654880533
389,814,33767424,23.56128704539714
390,816,33767424,23.83752257219219
391,818,33767424,23.70205985700468
392,820,33767424,23.787548378279755
393,822,33767424,23.753279074838737
394,824,33767424,24.80638888541983
395,826,33767424,24.727912891350723
396,828,33767424,24.73312917362194
397,830,33767424,24.76912344942774
398,834,33783808,23.255969942740865
399,836,33783808,23.465817602658326
400,838,33783808,23.405487268378995
401,840,33783808,23.609620010426756
402,843,33783808,25.292298247781183
403,844,33783808,23.448634677024177
404,846,33783808,23.63446128876545
405,848,33783808,23.494555413222507
406,850,33783808,23.411196469728953
407,852,33783808,23.6874893951186
408,854,33783808,23.429900617930382
409,856,33783808,23.408082014669628
410,858,33783808,23.36611782997636
411,860,33783808,23.34080504955735
412,862,33783808,23.39146937676169
413,864,33783808,23.842086914300957
414,866,33783808,23.68376968342477
415,868,33783808,23.415334136859606
416,870,33783808,23.656704148069515
417,872,33783808,23.35991370667183
418,874,33783808,23.424182291428327
419,876,33783808,23.424702023949024
420,878,33783808,23.4919414617322
421,880,33783808,23.65615750508186
422,882,33783808,23.41327323356439
423,884,33783808,23.63022929510396
424,886,33783808,23.483580724224844
425,888,33783808,24.120971098794158
426,890,33783808,24.149127284008333
427,892,33783808,24.2757145905893
428,894,33783808,24.251735942864812
