idx,og Index,data (B),bandwidth (GB/s)
0,0,32768,3.9536679536679538
1,1,32768,3.9384615384615387
2,2,32768,3.9536679536679538
3,3,32768,3.878787878787879
4,4,32768,3.9689922480620154
5,5,32768,3.9233716475095783
6,6,32768,3.8496240601503757
7,7,32768,3.9536679536679538
8,8,32768,3.9844357976653697
9,9,32768,3.9233716475095783
10,10,32768,3.9844357976653697
11,11,32768,3.893073541641915
12,12,32768,3.983951367781155
13,13,32768,3.9233716475095783
14,14,32768,3.9384615384615387
15,15,32768,3.9384615384615387
16,16,32768,3.983951367781155
17,17,32768,3.9689922480620154
18,18,32768,3.9844357976653697
19,19,32768,3.9536679536679538
20,20,32768,4.01519421639505
21,21,32768,3.9689922480620154
22,22,32768,3.9536679536679538
23,23,32768,3.9229019513947083
24,26,32768,4.01519421639505
25,27,32768,3.8496240601503757
26,28,32768,3.9844357976653697
27,29,32768,3.9536679536679538
28,30,32768,3.9689922480620154
29,31,32768,3.9083969465648853
30,32,32768,3.9689922480620154
31,33,32768,3.878787878787879
32,34,32768,4
33,35,32768,3.9384615384615387
34,36,32768,3.9536679536679538
35,37,32768,3.2
36,38,32768,3.9689922480620154
37,39,32768,3.9233716475095783
38,40,32768,3.9536679536679538
39,41,32768,3.9229019513947083
40,42,32768,3.9844357976653697
41,43,32768,3.9384615384615387
42,44,32768,3.92384145611304
43,45,32768,3.9384615384615387
44,46,32768,3.9844357976653697
45,47,32768,3.9083969465648853
46,48,32768,3.9844357976653697
47,49,32768,3.9229019513947083
48,50,32768,3.9384615384615387
49,51,32768,3.6441281138790034
50,52,32768,3.9689922480620154
51,53,32768,3.9384615384615387
52,54,32768,3.9536679536679538
53,55,32768,3.9079308288610615
54,56,32768,3.9844357976653697
55,57,32768,3.683453237410072
56,58,32768,3.9536679536679538
57,59,32768,2.8764044943820224
58,60,32768,3.9844357976653697
59,61,32768,3.9379882225694027
60,62,32768,4.096
61,63,32768,3.878787878787879
62,64,32768,3.9689922480620154
63,65,32768,3.9536679536679538
64,66,32768,3.9531909759922788
65,67,32768,3.9083969465648853
66,68,32768,3.9531909759922788
67,69,32768,3.9233716475095783
68,70,32768,3.9689922480620154
69,71,32768,3.9229019513947083
70,72,32768,3.9689922480620154
71,73,32768,3.9233716475095783
72,74,32768,3.9229019513947083
73,75,32768,2.852367688022284
74,76,32768,3.9536679536679538
75,77,32768,3.9233716475095783
76,78,32768,3.9384615384615387
77,79,32768,3.9384615384615387
78,80,32768,3.9689922480620154
79,81,32768,3.8496240601503757
80,82,32768,3.9689922480620154
81,83,32768,3.9536679536679538
82,84,32768,3.9689922480620154
83,85,32768,3.696750902527076
84,86,32768,3.9689922480620154
85,87,32768,3.9233716475095783
