idx,og Index,data (B),bandwidth (GB/s)
0,2,16384,2.3703703703703702
1,3,16384,2.3813953488372093
2,4,16384,2.359447004608295
3,5,16384,2.3813953488372093
4,6,16384,2.359447004608295
5,7,16384,2.359447004608295
6,8,16384,2.327272727272727
7,9,16384,2.359447004608295
8,14,16384,2.359447004608295
9,15,16384,2.3486238532110093
10,16,16384,2.370713355520185
11,17,16384,2.359447004608295
12,18,16384,2.359447004608295
13,19,16384,2.359447004608295
14,20,16384,2.3703703703703702
15,21,16384,2.3813953488372093
16,22,16384,2.392523364485981
17,23,16384,2.3703703703703702
18,24,16384,2.359447004608295
19,25,16384,2.359447004608295
20,30,16384,2.359447004608295
21,31,16384,2.3063063063063063
22,32,16384,2.3486238532110093
23,33,16384,2.3813953488372093
24,34,16384,2.3813953488372093
25,35,16384,2.3703703703703702
26,36,16384,2.316742081447964
27,37,16384,2.3813953488372093
28,38,16384,2.39217404000584
29,39,16384,2.3813953488372093
30,40,16384,2.359447004608295
31,41,16384,2.392523364485981
32,46,16384,2.370027484449588
33,47,16384,2.3813953488372093
34,48,16384,2.359447004608295
35,49,16384,2.370713355520185
36,50,16384,2.3703703703703702
37,51,16384,2.327272727272727
38,52,16384,2.3486238532110093
39,53,16384,2.3813953488372093
40,54,16384,2.3063063063063063
41,55,16384,2.3703703703703702
42,56,16384,2.3703703703703702
43,57,16384,2.359447004608295
44,62,16384,2.3378995433789953
45,63,16384,2.316742081447964
46,64,16384,2.370713355520185
47,65,16384,2.3486238532110093
48,66,16384,2.359447004608295
49,67,16384,2.3813953488372093
50,68,16384,2.359447004608295
51,69,16384,2.265486725663717
52,70,16384,2.359447004608295
53,71,16384,2.3813953488372093
54,72,16384,2.3703703703703702
55,73,16384,2.3813953488372093
56,78,16384,2.3703703703703702
57,79,16384,2.3703703703703702
58,80,16384,2.3063063063063063
59,81,16384,2.3703703703703702
60,82,16384,2.381049266095044
61,83,16384,2.3703703703703702
62,84,16384,2.3813953488372093
63,85,16384,2.3813953488372093
64,86,16384,2.359447004608295
65,87,16384,2.39217404000584
66,88,16384,2.3703703703703702
67,89,16384,2.3703703703703702
68,94,16384,2.370027484449588
69,95,16384,2.3703703703703702
70,96,16384,2.370713355520185
71,97,16384,2.327272727272727
72,98,16384,2.3813953488372093
73,99,16384,2.3063063063063063
74,100,16384,2.3703703703703702
75,101,16384,2.3813953488372093
76,102,16384,2.3703703703703702
77,103,16384,2.3591072714182864
78,104,16384,2.2853954526433253
79,105,16384,2.359447004608295
80,110,16384,2.392523364485981
81,111,16384,2.39217404000584
82,112,16384,2.3703703703703702
83,113,16384,2.2755555555555556
84,114,16384,2.359447004608295
85,115,16384,2.3813953488372093
86,116,16384,2.316742081447964
87,117,16384,2.3813953488372093
88,118,16384,2.2857142857142856
89,119,16384,2.370713355520185
90,120,16384,2.3703703703703702
91,121,16384,2.316742081447964
92,126,16384,2.3703703703703702
93,127,16384,2.359447004608295
94,128,16384,2.3486238532110093
95,129,16384,2.3813953488372093
96,130,16384,2.3063063063063063
97,131,16384,2.3813953488372093
98,132,16384,2.3375659865886718
99,133,16384,2.316742081447964
100,134,16384,2.3813953488372093
101,135,16384,2.3813953488372093
102,136,16384,2.3486238532110093
103,137,16384,2.3703703703703702
104,142,16384,2.295964125560538
105,143,16384,2.3813953488372093
106,144,16384,2.3813953488372093
107,145,16384,2.3703703703703702
108,146,16384,2.3813953488372093
109,147,16384,2.3703703703703702
110,148,16384,2.3813953488372093
111,149,16384,2.359447004608295
112,150,16384,2.3813953488372093
113,151,16384,2.3378995433789953
114,152,16384,2.327272727272727
115,153,16384,2.3703703703703702
116,158,16384,2.392523364485981
117,159,16384,2.359447004608295
118,160,16384,2.370027484449588
119,161,16384,2.3063063063063063
120,162,16384,2.327272727272727
121,163,16384,2.359447004608295
122,164,16384,2.359447004608295
123,165,16384,2.3813953488372093
124,166,16384,2.3703703703703702
125,167,16384,2.3703703703703702
126,168,16384,2.3486238532110093
127,169,16384,2.3591072714182864
128,174,16384,2.3063063063063063
129,175,16384,2.3703703703703702
130,176,16384,2.3813953488372093
131,177,16384,2.359447004608295
132,178,16384,2.3591072714182864
133,179,16384,2.3813953488372093
134,180,16384,2.3703703703703702
135,181,16384,2.3813953488372093
136,182,16384,2.327272727272727
137,183,16384,2.3703703703703702
138,184,16384,2.3486238532110093
139,185,16384,2.3813953488372093
140,190,16384,2.359447004608295
141,191,16384,2.3703703703703702
142,192,16384,2.327272727272727
143,193,16384,2.327272727272727
144,194,16384,2.3703703703703702
145,195,16384,2.359447004608295
146,196,16384,2.2857142857142856
147,197,16384,2.3378995433789953
148,198,16384,2.359447004608295
149,199,16384,2.3703703703703702
150,200,16384,2.2755555555555556
151,201,16384,2.3813953488372093
152,206,16384,2.316742081447964
153,207,16384,2.3591072714182864
154,208,16384,2.359447004608295
155,209,16384,2.3703703703703702
156,210,16384,2.359447004608295
157,211,16384,2.3378995433789953
158,212,16384,2.359447004608295
159,213,16384,2.265486725663717
160,214,16384,2.3813953488372093
161,215,16384,2.3703703703703702
162,216,16384,2.2755555555555556
163,217,16384,2.295964125560538
164,222,16384,2.359447004608295
165,223,16384,2.359447004608295
166,224,16384,2.381049266095044
167,225,16384,2.359447004608295
168,226,16384,2.3063063063063063
169,227,16384,2.359447004608295
170,228,16384,2.327272727272727
171,229,16384,2.3813953488372093
172,230,16384,2.392523364485981
173,231,16384,2.3703703703703702
174,232,16384,2.3703703703703702
175,233,16384,2.3591072714182864
176,238,16384,2.3813953488372093
177,239,16384,2.3813953488372093
178,240,16384,2.327272727272727
179,241,16384,2.2755555555555556
180,242,16384,2.3703703703703702
181,243,16384,2.3703703703703702
182,244,16384,2.3813953488372093
183,245,16384,2.316742081447964
184,246,16384,2.3703703703703702
185,247,16384,2.359447004608295
186,248,16384,2.359447004608295
187,249,16384,2.3703703703703702
188,254,16384,2.3703703703703702
189,255,16384,2.3703703703703702
190,256,16384,2.3813953488372093
191,257,16384,2.359447004608295
192,258,16384,2.3378995433789953
193,259,16384,2.381049266095044
194,260,16384,2.3813953488372093
195,261,16384,2.3486238532110093
196,262,16384,2.359447004608295
197,263,16384,2.3703703703703702
198,264,16384,2.3813953488372093
199,265,16384,2.3703703703703702
200,270,16384,2.359447004608295
201,271,16384,2.3703703703703702
202,272,16384,2.2956424267899678
203,273,16384,2.3486238532110093
204,274,16384,2.3703703703703702
205,275,16384,2.3813953488372093
206,276,16384,2.3813953488372093
207,277,16384,2.381049266095044
208,278,16384,2.359447004608295
209,279,16384,2.359447004608295
210,280,16384,2.3813953488372093
211,281,16384,2.3813953488372093
212,286,16384,2.359447004608295
213,287,16384,2.359447004608295
214,288,16384,2.3378995433789953
215,289,16384,2.381049266095044
216,290,16384,2.370713355520185
217,291,16384,2.3486238532110093
218,292,16384,2.295964125560538
219,293,16384,2.3703703703703702
220,294,16384,2.3591072714182864
221,295,16384,2.3813953488372093
222,296,16384,2.370027484449588
223,297,16384,2.3703703703703702
224,302,16384,2.381049266095044
225,303,16384,2.3813953488372093
226,304,16384,2.359447004608295
227,305,16384,2.2555066079295156
228,306,16384,2.3703703703703702
229,307,16384,2.3063063063063063
230,308,16384,2.370027484449588
231,309,16384,2.3591072714182864
232,310,16384,2.370027484449588
233,311,16384,2.3378995433789953
234,312,16384,2.3813953488372093
235,313,16384,2.3813953488372093
236,318,16384,2.3703703703703702
237,319,16384,2.3591072714182864
238,320,16384,2.359447004608295
239,321,16384,2.3703703703703702
240,322,16384,2.3703703703703702
241,323,16384,2.403755868544601
242,324,16384,2.370713355520185
243,325,16384,2.3703703703703702
244,326,16384,2.3703703703703702
245,327,16384,2.359447004608295
246,328,16384,2.3486238532110093
247,329,16384,2.327272727272727
248,334,16384,2.3813953488372093
249,335,16384,2.359447004608295
250,336,16384,2.3813953488372093
251,337,16384,2.327272727272727
252,338,16384,2.3703703703703702
253,339,16384,2.3813953488372093
254,340,16384,2.392523364485981
255,341,16384,2.3703703703703702
256,342,16384,2.3813953488372093
257,343,16384,2.359447004608295
258,344,16384,2.39217404000584
259,345,16384,2.3703703703703702
260,350,16384,2.3813953488372093
261,351,16384,2.4615384615384617
262,352,16384,2.359447004608295
263,353,16384,2.3703703703703702
264,354,16384,2.370027484449588
265,355,16384,2.359447004608295
266,356,16384,2.359447004608295
267,357,16384,2.3813953488372093
268,358,16384,2.3703703703703702
269,359,16384,2.3703703703703702
270,360,16384,2.3813953488372093
271,361,16384,2.327272727272727
272,366,16384,2.359447004608295
273,367,16384,2.3813953488372093
274,368,16384,2.3486238532110093
275,369,16384,2.3703703703703702
276,370,16384,2.3813953488372093
277,371,16384,2.359447004608295
278,372,16384,2.3813953488372093
279,373,16384,2.370027484449588
280,374,16384,2.370027484449588
281,375,16384,2.316742081447964
282,376,16384,2.3486238532110093
283,377,16384,2.327272727272727
284,382,16384,2.3813953488372093
285,383,16384,2.2755555555555556
286,384,16384,2.381049266095044
287,385,16384,2.392523364485981
288,386,16384,2.359447004608295
289,387,16384,2.381049266095044
290,388,16384,2.3813953488372093
291,389,16384,2.316742081447964
292,390,16384,2.3813953488372093
293,391,16384,2.359447004608295
294,392,16384,2.359447004608295
295,393,16384,2.3813953488372093
296,398,16384,2.327272727272727
297,399,16384,2.3703703703703702
298,400,16384,2.3591072714182864
299,401,16384,2.2857142857142856
300,402,16384,2.3703703703703702
301,403,16384,2.3813953488372093
302,404,16384,2.381049266095044
303,405,16384,2.3813953488372093
304,406,16384,2.3486238532110093
305,407,16384,2.327272727272727
306,408,16384,2.3703703703703702
307,409,16384,2.392523364485981
308,414,16384,2.359447004608295
309,415,16384,2.3378995433789953
310,416,16384,2.3813953488372093
311,417,16384,2.359447004608295
312,418,16384,2.3486238532110093
313,419,16384,2.3813953488372093
314,420,16384,2.3813953488372093
315,421,16384,2.3703703703703702
316,422,16384,2.359447004608295
317,423,16384,2.3486238532110093
318,424,16384,2.3703703703703702
319,425,16384,2.316742081447964
320,430,16384,2.359447004608295
321,431,16384,2.3378995433789953
322,432,16384,2.295964125560538
323,433,16384,2.3486238532110093
324,434,16384,2.3813953488372093
325,435,16384,2.359447004608295
326,436,16384,2.3486238532110093
327,437,16384,2.359447004608295
328,438,16384,2.473429951690821
329,439,16384,2.3813953488372093
330,440,16384,2.370027484449588
331,441,16384,2.392523364485981
332,446,16384,2.327272727272727
333,447,16384,2.3378995433789953
334,448,16384,2.3703703703703702
335,449,16384,2.370027484449588
336,450,16384,2.392523364485981
337,451,16384,2.3486238532110093
338,452,16384,2.3703703703703702
339,453,16384,2.3813953488372093
340,454,16384,2.359447004608295
341,455,16384,2.3813953488372093
342,456,16384,2.3703703703703702
343,457,16384,2.370027484449588
344,462,16384,2.3703703703703702
345,463,16384,2.473429951690821
346,464,16384,2.3703703703703702
347,465,16384,2.3486238532110093
348,466,16384,2.3591072714182864
349,467,16384,2.3703703703703702
350,468,16384,2.2555066079295156
351,469,16384,2.3703703703703702
352,470,16384,2.3378995433789953
353,471,16384,2.3813953488372093
354,472,16384,2.3164145341439277
355,473,16384,2.3703703703703702
356,478,16384,2.3703703703703702
357,479,16384,2.359447004608295
358,480,16384,2.327272727272727
359,481,16384,2.3813953488372093
360,482,16384,2.359447004608295
361,483,16384,2.359447004608295
362,484,16384,2.3378995433789953
363,485,16384,2.3813953488372093
364,486,16384,2.3703703703703702
365,487,16384,2.2956424267899678
366,488,16384,2.3813953488372093
367,489,16384,2.4268997185602132
368,494,16384,2.359447004608295
369,495,16384,2.327272727272727
370,496,16384,2.3813953488372093
371,497,16384,2.359447004608295
372,498,16384,2.392523364485981
373,499,16384,2.392523364485981
374,500,16384,2.359447004608295
375,501,16384,2.3703703703703702
376,502,16384,2.359447004608295
377,503,16384,2.3063063063063063
378,504,16384,2.359447004608295
379,505,16384,2.359447004608295
380,510,16384,2.3703703703703702
381,511,16384,2.3703703703703702
382,512,16384,2.359447004608295
383,513,16384,2.359447004608295
384,514,16384,2.3486238532110093
385,515,16384,2.3378995433789953
386,516,16384,2.327272727272727
387,517,16384,2.3813953488372093
388,1044,16384,2.316742081447964
389,1045,16384,2.359447004608295
390,1046,16384,2.3703703703703702
391,1047,16384,2.327272727272727
392,1048,16384,2.370027484449588
393,1049,16384,2.359447004608295
394,1050,16384,2.316742081447964
395,1051,16384,2.359447004608295
396,1052,16384,2.3813953488372093
397,1053,16384,2.327272727272727
398,1054,16384,2.316742081447964
399,1055,16384,2.3813953488372093
400,1060,16384,2.359447004608295
401,1061,16384,2.359447004608295
402,1062,16384,2.2857142857142856
403,1063,16384,2.3813953488372093
404,1064,16384,2.3703703703703702
405,1065,16384,2.359447004608295
406,1066,16384,2.359447004608295
407,1067,16384,2.3703703703703702
408,1068,16384,2.3813953488372093
409,1069,16384,2.316742081447964
410,1070,16384,2.327272727272727
411,1071,16384,2.3591072714182864
412,1076,16384,2.316742081447964
413,1077,16384,2.3703703703703702
414,1078,16384,2.327272727272727
415,1079,16384,2.392523364485981
416,1080,16384,2.3486238532110093
417,1081,16384,2.3813953488372093
418,1082,16384,2.348287229468253
419,1083,16384,2.3486238532110093
420,1084,16384,2.392872791003359
421,1085,16384,2.3486238532110093
422,1086,16384,2.381049266095044
423,1087,16384,2.359447004608295
424,1092,16384,2.3703703703703702
425,1093,16384,2.359447004608295
426,1094,16384,2.3486238532110093
427,1095,16384,2.3703703703703702
428,1096,16384,2.3703703703703702
429,1097,16384,2.2857142857142856
430,1098,16384,2.3703703703703702
431,1099,16384,2.3486238532110093
432,1100,16384,2.348287229468253
433,1101,16384,2.3813953488372093
434,1102,16384,2.3703703703703702
435,1103,16384,2.3813953488372093
436,1108,16384,2.3813953488372093
437,1109,16384,2.370027484449588
438,1110,16384,2.359447004608295
439,1111,16384,2.3486238532110093
440,1112,16384,2.3486238532110093
441,1113,16384,2.2755555555555556
442,1114,16384,2.3378995433789953
443,1115,16384,2.3813953488372093
444,1116,16384,2.392523364485981
445,1117,16384,2.3813953488372093
446,1118,16384,2.3813953488372093
447,1119,16384,2.3378995433789953
448,1124,16384,2.2755555555555556
449,1125,16384,2.3813953488372093
450,1126,16384,2.2453062902562695
451,1127,16384,2.3813953488372093
452,1128,16384,2.4265402843601898
453,1129,16384,2.3813953488372093
454,1130,16384,2.295964125560538
455,1131,16384,2.3486238532110093
456,1132,16384,2.3063063063063063
457,1133,16384,2.3813953488372093
458,1134,16384,2.3813953488372093
459,1135,16384,2.3813953488372093
460,1140,16384,2.392523364485981
461,1141,16384,2.370027484449588
462,1142,16384,2.403755868544601
463,1143,16384,2.3813953488372093
464,1144,16384,2.3703703703703702
465,1145,16384,2.370027484449588
466,1146,16384,2.3703703703703702
467,1147,16384,2.392523364485981
468,1148,16384,2.392523364485981
469,1149,16384,2.3164145341439277
470,1150,16384,2.3813953488372093
471,1151,16384,2.3063063063063063
472,1156,16384,2.370027484449588
473,1157,16384,2.3063063063063063
474,1158,16384,2.392523364485981
475,1159,16384,2.370027484449588
476,1160,16384,2.359447004608295
477,1161,16384,2.3703703703703702
478,1162,16384,2.3813953488372093
479,1163,16384,2.3813953488372093
480,1164,16384,2.370027484449588
481,1165,16384,2.3703703703703702
482,1166,16384,2.3703703703703702
483,1167,16384,2.3703703703703702
484,1172,16384,2.3813953488372093
485,1173,16384,2.3813953488372093
486,1174,16384,2.3703703703703702
487,1175,16384,2.359447004608295
488,1176,16384,2.316742081447964
489,1177,16384,2.370713355520185
490,1178,16384,2.265486725663717
491,1179,16384,2.3703703703703702
492,1180,16384,2.348287229468253
493,1181,16384,2.359447004608295
494,1182,16384,2.3813953488372093
495,1183,16384,2.3703703703703702
496,1188,16384,2.316742081447964
497,1189,16384,2.403755868544601
498,1190,16384,2.3703703703703702
499,1191,16384,2.3813953488372093
500,1192,16384,2.3813953488372093
501,1193,16384,2.359447004608295
502,1194,16384,2.3703703703703702
503,1195,16384,2.3378995433789953
504,1196,16384,2.3375659865886718
505,1197,16384,2.359447004608295
506,1198,16384,2.316742081447964
507,1199,16384,2.3703703703703702
508,1204,16384,2.359447004608295
509,1205,16384,2.3703703703703702
510,1206,16384,2.295964125560538
511,1207,16384,2.359447004608295
512,1208,16384,2.3703703703703702
513,1209,16384,2.3375659865886718
514,1210,16384,2.316742081447964
515,1211,16384,2.3486238532110093
516,1212,16384,2.359447004608295
517,1213,16384,2.3486238532110093
518,1214,16384,2.3813953488372093
519,1215,16384,2.3813953488372093
520,1220,16384,2.359447004608295
521,1221,16384,2.3486238532110093
522,1222,16384,2.3813953488372093
523,1223,16384,2.359447004608295
524,1224,16384,2.3703703703703702
525,1225,16384,2.370713355520185
526,1226,16384,2.3486238532110093
527,1227,16384,2.3703703703703702
528,1228,16384,2.359447004608295
529,1229,16384,2.370713355520185
530,1230,16384,2.317069721397256
531,1231,16384,2.295964125560538
532,1236,16384,2.359447004608295
533,1237,16384,2.3813953488372093
534,1238,16384,2.403755868544601
535,1239,16384,2.359447004608295
536,1240,16384,2.359447004608295
537,1241,16384,2.359447004608295
538,1242,16384,2.3813953488372093
539,1243,16384,2.3703703703703702
540,1244,16384,2.3703703703703702
541,1245,16384,2.3703703703703702
542,1246,16384,2.39217404000584
543,1247,16384,2.359447004608295
544,1252,16384,2.3703703703703702
545,1253,16384,2.3378995433789953
546,1254,16384,2.359447004608295
547,1255,16384,2.3591072714182864
548,1256,16384,2.3703703703703702
549,1257,16384,2.3813953488372093
550,1258,16384,2.3813953488372093
551,1259,16384,2.3378995433789953
552,1260,16384,2.3703703703703702
553,1261,16384,2.3703703703703702
554,1262,16384,2.3813953488372093
555,1263,16384,2.3813953488372093
556,1268,16384,2.295964125560538
557,1269,16384,2.305981703026038
558,1270,16384,2.348287229468253
559,1271,16384,2.3378995433789953
560,1272,16384,2.359447004608295
561,1273,16384,2.2555066079295156
562,1274,16384,2.3703703703703702
563,1275,16384,2.370027484449588
564,1276,16384,2.3703703703703702
565,1277,16384,2.3703703703703702
566,1278,16384,2.3703703703703702
567,1279,16384,2.3703703703703702
568,1284,16384,2.359447004608295
569,1285,16384,2.3703703703703702
570,1286,16384,2.370027484449588
571,1287,16384,2.392523364485981
572,1288,16384,2.3591072714182864
573,1289,16384,2.316742081447964
574,1290,16384,2.3703703703703702
575,1291,16384,2.359447004608295
576,1292,16384,2.3486238532110093
577,1293,16384,2.275239550062491
578,1294,16384,2.3486238532110093
579,1295,16384,2.3703703703703702
580,1300,16384,2.359447004608295
581,1301,16384,2.3813953488372093
582,1302,16384,2.3813953488372093
583,1303,16384,2.295964125560538
584,1304,16384,2.3703703703703702
585,1305,16384,2.316742081447964
586,1306,16384,2.3813953488372093
587,1307,16384,2.359447004608295
588,1308,16384,2.3703703703703702
589,1309,16384,2.305981703026038
590,1310,16384,2.359447004608295
591,1311,16384,2.348287229468253
592,1316,16384,2.359447004608295
593,1317,16384,2.3378995433789953
594,1318,16384,2.359447004608295
595,1319,16384,2.3382331953760525
596,1320,16384,2.3703703703703702
597,1321,16384,2.3703703703703702
598,1322,16384,2.359447004608295
599,1323,16384,2.359447004608295
600,1324,16384,2.2857142857142856
601,1325,16384,2.381049266095044
602,1326,16384,2.359447004608295
603,1327,16384,2.348287229468253
604,1332,16384,2.359447004608295
605,1333,16384,2.327272727272727
606,1334,16384,2.3703703703703702
607,1335,16384,2.359447004608295
608,1336,16384,2.3703703703703702
609,1337,16384,2.3489605734767025
610,1338,16384,2.3703703703703702
