idx,og Index,data (B),bandwidth (GB/s)
0,2,8192,1.3128205128205128
1,3,8192,1.3264248704663213
2,4,8192,1.3195876288659794
3,5,8192,1.3128205128205128
4,6,8192,1.3193751006603318
5,7,8192,1.3193751006603318
6,8,8192,1.3195876288659794
7,9,8192,0.9624060150375939
8,11,8192,1.3264248704663213
9,12,8192,1.3264248704663213
10,13,8192,1.3128205128205128
11,14,8192,1.3195876288659794
12,15,8192,1.2305843473035902
13,17,8192,1.3264248704663213
14,18,8192,1.312610158628425
15,19,8192,1.299492385786802
16,20,8192,1.3264248704663213
17,21,8192,1.103448275862069
18,26,8192,1.3128205128205128
19,27,8192,1.3061224489795917
20,28,8192,1.3264248704663213
21,29,8192,1.3128205128205128
22,30,8192,1.3061224489795917
23,31,8192,1.3333333333333333
24,32,8192,1.3266396761133603
25,33,8192,1.3128205128205128
26,34,8192,1.3264248704663213
27,35,8192,1.0448979591836736
28,36,8192,1.3195876288659794
29,37,8192,1.3195876288659794
30,38,8192,1.3403141361256545
31,39,8192,1.3193751006603318
32,40,8192,1.2862301774218872
33,41,8192,1.2132701421800949
34,42,8192,0.7827998088867654
35,43,8192,1.3128205128205128
36,45,8192,1.3264248704663213
37,46,8192,1.292929292929293
38,47,8192,1.3128205128205128
39,48,8192,1.3405334642448044
40,49,8192,1.292929292929293
41,50,8192,1.4222222222222223
42,51,8192,1.3264248704663213
43,52,8192,1.2927252643206564
44,53,8192,1.3264248704663213
45,58,8192,1.3128205128205128
46,59,8192,1.3061224489795917
47,60,8192,1.3333333333333333
48,61,8192,1.3195876288659794
49,62,8192,1.3333333333333333
50,63,8192,1.3403141361256545
51,64,8192,1.3128205128205128
52,65,8192,1.3195876288659794
53,66,8192,1.8024202420242024
54,67,8192,1.3264248704663213
55,69,8192,1.3195876288659794
56,70,8192,1.3331163547599674
57,71,8192,1.3195876288659794
58,72,8192,1.292929292929293
59,73,8192,1.3195876288659794
60,74,8192,1.3331163547599674
61,75,8192,1.3333333333333333
62,76,8192,1.3195876288659794
63,77,8192,1.3195876288659794
64,78,8192,1.3264248704663213
65,79,8192,1.3195876288659794
66,80,8192,1.3195876288659794
67,81,8192,0.8504100487906155
68,82,8192,1.3198002255517964
69,83,8192,1.3333333333333333
70,84,8192,1.620253164556962
71,85,8192,0.810126582278481
72,91,8192,0.7231638418079096
73,92,8192,1.3264248704663213
74,93,8192,1.3193751006603318
75,94,8192,1.3128205128205128
76,95,8192,1.3403141361256545
77,96,8192,1.2864321608040201
78,97,8192,1.3128205128205128
79,98,8192,1.3061224489795917
80,99,8192,1.3195876288659794
81,100,8192,1.3473684210526315
82,101,8192,1.3128205128205128
83,103,8192,1.3264248704663213
84,105,8192,1.3264248704663213
85,106,8192,1.3333333333333333
86,107,8192,1.3195876288659794
87,108,8192,1.3264248704663213
88,109,8192,1.3195876288659794
89,110,8192,1.3193751006603318
90,111,8192,1.3333333333333333
91,112,8192,1.3264248704663213
92,113,8192,1.3195876288659794
93,114,8192,1.312610158628425
94,115,8192,1.3333333333333333
95,116,8192,1.3195876288659794
96,117,8192,1.3195876288659794
97,122,8192,1.3195876288659794
98,123,8192,0.9846153846153847
99,124,8192,1.3333333333333333
100,125,8192,1.3128205128205128
101,126,8192,1.3061224489795917
102,127,8192,1.3195876288659794
103,128,8192,1.3195876288659794
104,129,8192,1.3061224489795917
105,130,8192,1.4382022471910112
106,131,8192,1.3264248704663213
107,132,8192,1.3128205128205128
108,133,8192,1.3195876288659794
109,134,8192,1.3333333333333333
110,135,8192,1.3264248704663213
111,136,8192,1.3195876288659794
112,137,8192,1.3061224489795917
113,138,8192,1.312610158628425
114,139,8192,1.2862301774218872
115,140,8192,1.3264248704663213
116,141,8192,1.3061224489795917
117,143,8192,1.3061224489795917
118,144,8192,1.3333333333333333
119,145,8192,1.3059142356129443
120,146,8192,1.3333333333333333
121,147,8192,1.3264248704663213
122,148,8192,1.3333333333333333
123,149,8192,1.3333333333333333
124,154,8192,1.3128205128205128
125,155,8192,1.3059142356129443
126,156,8192,1.3403141361256545
127,157,8192,1.3128205128205128
128,158,8192,1.3264248704663213
129,159,8192,1.3264248704663213
130,160,8192,1.3195876288659794
131,161,8192,1.3264248704663213
132,162,8192,1.292929292929293
133,163,8192,1.3266396761133603
134,164,8192,1.0987124463519313
135,165,8192,1.3195876288659794
136,166,8192,1.3264248704663213
137,167,8192,1.3128205128205128
138,168,8192,1.3333333333333333
139,169,8192,1.3264248704663213
140,170,8192,1.3266396761133603
141,171,8192,1.3128205128205128
142,173,8192,1.3333333333333333
143,174,8192,1.3264248704663213
144,175,8192,1.3128205128205128
145,177,8192,1.3264248704663213
146,178,8192,1.2190476190476192
147,179,8192,1.3333333333333333
148,181,8192,1.3128205128205128
149,186,8192,1.3195876288659794
150,187,8192,1.0448979591836736
151,188,8192,1.292929292929293
152,189,8192,1.2075471698113207
153,190,8192,0.8338762214983714
154,191,8192,1.3331163547599674
155,192,8192,1.3128205128205128
156,193,8192,1.3128205128205128
157,195,8192,1.3198002255517964
158,197,8192,1.3544973544973544
159,198,8192,1.3128205128205128
160,199,8192,1.3198002255517964
161,201,8192,1.3061224489795917
162,202,8192,1.312610158628425
163,203,8192,1.3264248704663213
164,205,8192,1.3264248704663213
165,207,8192,1.3266396761133603
166,208,8192,1.3128205128205128
167,209,8192,1.326210134369435
168,210,8192,1.3061224489795917
169,211,8192,1.3195876288659794
170,212,8192,1.3128205128205128
171,213,8192,1.0281124497991967
172,218,8192,1.299492385786802
173,219,8192,1.312610158628425
174,220,8192,1.3195876288659794
175,221,8192,1.3128205128205128
176,222,8192,1.312610158628425
177,223,8192,1.1377777777777778
178,224,8192,1.3061224489795917
179,225,8192,1.3128205128205128
180,227,8192,1.3128205128205128
181,228,8192,1.3333333333333333
182,229,8192,1.3333333333333333
183,230,8192,1.3195876288659794
184,231,8192,1.3264248704663213
185,232,8192,1.3333333333333333
186,233,8192,1.2864321608040201
187,235,8192,1.3061224489795917
188,236,8192,1.3128205128205128
189,237,8192,1.3195876288659794
190,238,8192,1.3193751006603318
191,239,8192,1.3128205128205128
192,240,8192,1.3128205128205128
193,241,8192,1.3059142356129443
194,242,8192,1.3193751006603318
195,243,8192,1.3128205128205128
196,244,8192,0.757396449704142
197,245,8192,0.9078014184397163
198,250,8192,1.3195876288659794
199,251,8192,1.292929292929293
200,252,8192,1.3333333333333333
201,253,8192,1.3333333333333333
202,254,8192,1.3195876288659794
203,255,8192,1.3128205128205128
204,256,8192,1.2864321608040201
205,257,8192,1.3333333333333333
206,259,8192,1.3264248704663213
207,260,8192,1.3195876288659794
208,261,8192,1.3264248704663213
209,263,8192,0.7551622418879056
210,264,8192,1.299492385786802
211,265,8192,1.2736318407960199
212,266,8192,1.3403141361256545
213,267,8192,1.3128205128205128
214,268,8192,1.3061224489795917
215,269,8192,0.8888888888888888
216,270,8192,0.924187725631769
217,271,8192,1.4301675977653632
218,272,8192,1.0117327405211807
219,273,8192,0.8619528619528619
220,274,8192,1.3264248704663213
221,275,8192,0.8982456140350877
222,276,8192,0.8448844884488449
223,277,8192,1.2864321608040201
224,282,8192,1.3264248704663213
225,283,8192,1.292929292929293
226,284,8192,1.2736318407960199
227,285,8192,1.3195876288659794
228,286,8192,1.4301675977653632
229,287,8192,1.299492385786802
230,288,8192,0.9110320284697508
231,289,8192,1.326210134369435
232,291,8192,0.7551622418879056
233,293,8192,0.8591504981646565
234,294,8192,1.3195876288659794
235,295,8192,1.3195876288659794
236,296,8192,1.3193751006603318
237,297,8192,1.0893617021276596
238,298,8192,1.3264248704663213
239,299,8192,1.3061224489795917
240,300,8192,1.3400948797644365
241,301,8192,1.1428571428571428
242,302,8192,1.3333333333333333
243,303,8192,1.1906976744186046
244,304,8192,1.3333333333333333
245,305,8192,1.3333333333333333
246,306,8192,0.8311688311688312
247,307,8192,1.1377777777777778
248,308,8192,1.3195876288659794
249,309,8192,0.7852008051375443
250,314,8192,0.9110320284697508
251,315,8192,1.3061224489795917
252,316,8192,1.3264248704663213
253,317,8192,1.0846021448431087
254,318,8192,1.3128205128205128
255,319,8192,1.3264248704663213
256,320,8192,1.3264248704663213
257,321,8192,1.3128205128205128
258,322,8192,1.292929292929293
259,323,8192,1.3264248704663213
260,325,8192,1.326210134369435
261,326,8192,1.2608896413729413
262,327,8192,1.3195876288659794
263,329,8192,1.3193751006603318
264,330,8192,1.3128205128205128
265,331,8192,1.3264248704663213
266,332,8192,1.2549019607843137
267,333,8192,0.8231511254019293
268,334,8192,1.3128205128205128
269,335,8192,1.3333333333333333
270,336,8192,1.3195876288659794
271,337,8192,1.3195876288659794
272,338,8192,1.2736318407960199
273,339,8192,1.0666666666666667
274,340,8192,1.3193751006603318
275,341,8192,1.3061224489795917
276,346,8192,1.28
277,347,8192,1.3264248704663213
278,348,8192,1.3264248704663213
279,349,8192,1.2866342076331083
280,350,8192,1.2190476190476192
281,351,8192,1.312610158628425
282,352,8192,1.3195876288659794
283,353,8192,1.3264248704663213
284,354,8192,1.3128205128205128
285,355,8192,1.3128205128205128
286,356,8192,1.3193751006603318
287,357,8192,1.147982062780269
288,358,8192,1.3195876288659794
289,359,8192,1.3195876288659794
290,360,8192,1.3128205128205128
291,361,8192,1.3128205128205128
292,362,8192,1.3193751006603318
293,363,8192,1.299492385786802
294,364,8192,1.3264248704663213
295,365,8192,1.3195876288659794
296,367,8192,1.3128205128205128
297,368,8192,1.3264248704663213
298,369,8192,1.2864321608040201
299,370,8192,1.3333333333333333
300,371,8192,1.292929292929293
301,372,8192,1.3195876288659794
302,373,8192,1.3195876288659794
303,378,8192,1.3195876288659794
304,379,8192,1.0448979591836736
305,380,8192,1.1130434782608696
306,381,8192,0.9078014184397163
307,382,8192,1.3333333333333333
308,383,8192,1.3333333333333333
309,384,8192,1.292929292929293
310,385,8192,1.292929292929293
311,386,8192,1.3264248704663213
312,387,8192,1.3264248704663213
313,388,8192,1.2864321608040201
314,389,8192,1.326210134369435
315,390,8192,1.3264248704663213
316,391,8192,1.0491803278688525
317,392,8192,1.3333333333333333
318,393,8192,1.299492385786802
319,394,8192,0.901309274947739
320,395,8192,0.9808429118773946
321,396,8192,1.3333333333333333
322,397,8192,1.3403141361256545
323,398,8192,1.3331163547599674
324,399,8192,1.3128205128205128
325,400,8192,1.28
326,401,8192,1.3266396761133603
327,402,8192,1.292929292929293
328,403,8192,1.0448979591836736
329,404,8192,1.3403141361256545
330,405,8192,1.248780487804878
331,410,8192,1.3128205128205128
332,411,8192,1.2992862807295797
333,412,8192,1.3405334642448044
334,413,8192,1.1962616822429906
335,414,8192,1.3128205128205128
336,415,8192,1.326210134369435
337,416,8192,1.3403141361256545
338,417,8192,0.8737201365187713
339,419,8192,1.3061224489795917
340,420,8192,1.3128205128205128
341,421,8192,1.326210134369435
342,422,8192,1.3195876288659794
343,423,8192,1.3128205128205128
344,425,8192,1.3128205128205128
345,426,8192,1.3331163547599674
346,427,8192,1.3195876288659794
347,428,8192,1.2427184466019416
348,429,8192,1.299492385786802
349,430,8192,1.3128205128205128
350,431,8192,1.2866342076331083
351,432,8192,0.9481481481481482
352,433,8192,1.1741436147341264
353,435,8192,0.8025078369905956
354,437,8192,1.3195876288659794
355,442,8192,0.9588014981273408
356,443,8192,0.8858131487889274
357,444,8192,1.3128205128205128
358,445,8192,1.3195876288659794
359,446,8192,1.3403141361256545
360,447,8192,1.3333333333333333
361,448,8192,1.3128205128205128
362,449,8192,1.2673267326732673
363,450,8192,1.4382022471910112
364,451,8192,0.812617795853586
365,453,8192,1.3195876288659794
366,454,8192,1.3403141361256545
367,455,8192,1.3061224489795917
368,456,8192,1.3128205128205128
369,457,8192,1.2673267326732673
370,458,8192,1.3333333333333333
371,459,8192,1.3333333333333333
372,460,8192,1.3333333333333333
373,461,8192,1.3128205128205128
374,463,8192,1.3264248704663213
375,464,8192,1.3264248704663213
376,465,8192,1.3195876288659794
377,466,8192,1.3195876288659794
378,467,8192,1.3195876288659794
379,468,8192,1.3473684210526315
380,469,8192,1.3195876288659794
381,474,8192,1.3331163547599674
382,475,8192,1.3264248704663213
383,476,8192,1.3195876288659794
384,477,8192,1.326210134369435
385,478,8192,1.3193751006603318
386,479,8192,0.9552238805970149
387,480,8192,1.3333333333333333
388,481,8192,1.3264248704663213
389,482,8192,1.299492385786802
390,483,8192,1.3195876288659794
391,484,8192,1.3128205128205128
392,485,8192,1.3333333333333333
393,486,8192,1.292929292929293
394,487,8192,1.3763440860215055
395,488,8192,1.299492385786802
396,489,8192,1.2736318407960199
397,490,8192,1.391304347826087
398,491,8192,1.3264248704663213
399,492,8192,1.2864321608040201
400,493,8192,1.3333333333333333
401,494,8192,1.3333333333333333
402,495,8192,1.299492385786802
403,496,8192,1.3195876288659794
404,497,8192,1.2307692307692308
405,498,8192,1.292929292929293
406,499,8192,1.3195876288659794
407,500,8192,1.3333333333333333
408,501,8192,1.3333333333333333
409,3582,8192,1.3195876288659794
410,3583,8192,1.3617021276595744
411,3588,8192,1.3128205128205128
412,3589,8192,1.3264248704663213
413,3590,8192,1.3264248704663213
414,3591,8192,1.3195876288659794
415,3592,8192,1.3195876288659794
416,3593,8192,1.3195876288659794
417,3594,8192,1.3264248704663213
418,3595,8192,0.8951048951048951
419,3596,8192,1.3264248704663213
420,3597,8192,1.3333333333333333
421,3598,8192,1.3195876288659794
422,3599,8192,1.147982062780269
423,3600,8192,1.3264248704663213
424,3601,8192,1.2927252643206564
425,3602,8192,1.255094223992646
426,3603,8192,0.8888888888888888
427,3604,8192,1.3333333333333333
428,3605,8192,1.3128205128205128
429,3606,8192,1.2927252643206564
430,3607,8192,1.3264248704663213
431,3608,8192,1.024
432,3609,8192,1.326210134369435
433,3611,8192,0.764179104477612
434,3612,8192,1.299492385786802
435,3613,8192,1.3264248704663213
436,3614,8192,1.2992862807295797
437,3615,8192,1.292929292929293
438,3620,8192,1.0534979423868314
439,3621,8192,1.3128205128205128
440,3622,8192,1.3264248704663213
441,3623,8192,1.3195876288659794
442,3624,8192,1.3264248704663213
443,3625,8192,1.3333333333333333
444,3626,8192,1.3264248704663213
445,3627,8192,0.8178913738019169
446,3628,8192,1.3264248704663213
447,3629,8192,1.1130434782608696
448,3630,8192,1.0987124463519313
449,3631,8192,1.3193751006603318
450,3632,8192,1.3264248704663213
451,3633,8192,1.3264248704663213
452,3634,8192,1.2736318407960199
453,3635,8192,1.1277533039647578
454,3636,8192,1.3333333333333333
455,3637,8192,1.3195876288659794
456,3638,8192,1.3128205128205128
457,3639,8192,1.3128205128205128
458,3640,8192,1.3264248704663213
459,3641,8192,1.3333333333333333
460,3642,8192,1.3264248704663213
461,3643,8192,1.032258064516129
462,3644,8192,1.3195876288659794
463,3645,8192,0.9807254878486771
464,3646,8192,1.1636363636363636
465,3647,8192,1.3195876288659794
466,3652,8192,1.3264248704663213
467,3653,8192,1.0078740157480315
468,3654,8192,0.944540528075637
469,3655,8192,1.3264248704663213
470,3656,8192,1.2673267326732673
471,3657,8192,1.3128205128205128
472,3658,8192,1.3195876288659794
473,3659,8192,1.1531531531531531
474,3660,8192,1.3059142356129443
475,3661,8192,1.2610837438423645
476,3662,8192,0.8205128205128205
477,3663,8192,1.1082251082251082
478,3665,8192,0.839344262295082
479,3666,8192,1.326210134369435
480,3667,8192,1.0448979591836736
481,3668,8192,1.3264248704663213
482,3669,8192,1.3333333333333333
483,3670,8192,1.062240663900415
484,3671,8192,1.3195876288659794
485,3673,8192,1.3333333333333333
486,3674,8192,1.3195876288659794
487,3675,8192,1.326210134369435
488,3676,8192,1.3128205128205128
489,3677,8192,1.3333333333333333
490,3678,8192,1.3333333333333333
491,3679,8192,1.3128205128205128
492,3685,8192,1.2927252643206564
493,3686,8192,1.3333333333333333
494,3687,8192,1.3128205128205128
495,3689,8192,1.299492385786802
496,3690,8192,1.2864321608040201
497,3691,8192,1.3059142356129443
498,3692,8192,1.3403141361256545
499,3693,8192,1.3264248704663213
500,3694,8192,1.3264248704663213
501,3695,8192,1.299492385786802
502,3696,8192,1.3403141361256545
503,3697,8192,1.2864321608040201
504,3698,8192,1.3264248704663213
505,3699,8192,1.3128205128205128
506,3700,8192,1.3264248704663213
507,3701,8192,1.3266396761133603
508,3702,8192,1.3264248704663213
509,3703,8192,1.3195876288659794
510,3704,8192,1.3400948797644365
511,3705,8192,1.3195876288659794
512,3706,8192,1.292929292929293
513,3707,8192,1.2931333859510654
514,3708,8192,1.326210134369435
515,3709,8192,1.3333333333333333
516,3710,8192,1.3333333333333333
517,3711,8192,1.3128205128205128
518,3716,8192,1.3128205128205128
519,3717,8192,0.9410683515221138
520,3718,8192,1.3333333333333333
521,3719,8192,1.2673267326732673
522,3720,8192,1.3264248704663213
523,3721,8192,1.19608702000292
524,3724,8192,1.3264248704663213
525,3725,8192,1.3195876288659794
526,3726,8192,1.3333333333333333
527,3727,8192,1.3333333333333333
528,3728,8192,1.3333333333333333
529,3729,8192,1.3195876288659794
530,3730,8192,1.3128205128205128
531,3731,8192,1.292929292929293
532,3732,8192,1.299492385786802
533,3733,8192,1.292929292929293
534,3734,8192,1.3331163547599674
535,3735,8192,1.3264248704663213
536,3736,8192,1.3195876288659794
537,3737,8192,1.3264248704663213
538,3738,8192,1.3403141361256545
539,3739,8192,1.3264248704663213
540,3740,8192,1.3193751006603318
541,3741,8192,1.2864321608040201
542,3742,8192,1.3195876288659794
543,3743,8192,1.3264248704663213
544,3748,8192,1.3195876288659794
545,3749,8192,1.3193751006603318
546,3750,8192,1.312610158628425
547,3751,8192,1.3128205128205128
548,3752,8192,1.3061224489795917
549,3753,8192,1.3403141361256545
550,3754,8192,1.3195876288659794
551,3755,8192,1.3264248704663213
552,3756,8192,1.3195876288659794
553,3757,8192,1.2307692307692308
554,3758,8192,1.3128205128205128
555,3759,8192,1.3195876288659794
556,3760,8192,1.3128205128205128
557,3761,8192,1.3195876288659794
558,3762,8192,1.2862301774218872
559,3763,8192,1.3061224489795917
560,3764,8192,1.3061224489795917
561,3765,8192,1.299492385786802
562,3766,8192,1.3195876288659794
563,3767,8192,1.3195876288659794
564,3768,8192,1.3128205128205128
565,3769,8192,1.3193751006603318
566,3770,8192,1.158371040723982
567,3771,8192,1.3195876288659794
568,3772,8192,1.2864321608040201
569,3773,8192,1.0987124463519313
570,3774,8192,1.3128205128205128
571,3775,8192,1.3195876288659794
572,3780,8192,1.3195876288659794
573,3781,8192,1.3128205128205128
574,3782,8192,1.1082251082251082
575,3783,8192,1.3128205128205128
576,3784,8192,1.3333333333333333
577,3785,8192,1.3333333333333333
578,3786,8192,1.292929292929293
579,3787,8192,1.299492385786802
580,3788,8192,1.3264248704663213
581,3789,8192,1.2927252643206564
582,3790,8192,1.3403141361256545
583,3791,8192,1.3195876288659794
584,3792,8192,1.3264248704663213
585,3793,8192,1.3128205128205128
586,3794,8192,1.3128205128205128
587,3795,8192,1.3193751006603318
588,3796,8192,1.28
589,3797,8192,1.3128205128205128
590,3798,8192,1.3128205128205128
591,3799,8192,1.3195876288659794
592,3800,8192,1.3195876288659794
593,3801,8192,1.3195876288659794
594,3802,8192,1.3264248704663213
595,3803,8192,1.3061224489795917
596,3804,8192,1.3059142356129443
597,3805,8192,1.3128205128205128
598,3806,8192,1.3128205128205128
599,3807,8192,1.3264248704663213
600,3812,8192,1.2673267326732673
601,3813,8192,1.1906976744186046
602,3814,8192,1.3333333333333333
603,3815,8192,1.3403141361256545
604,3816,8192,1.3128205128205128
605,3817,8192,1.2864321608040201
606,3818,8192,1.3195876288659794
607,3819,8192,1.3333333333333333
608,3820,8192,1.3128205128205128
609,3821,8192,1.326210134369435
610,3822,8192,1.2864321608040201
611,3823,8192,1.3195876288659794
612,3824,8192,1.3333333333333333
613,3825,8192,1.3264248704663213
614,3826,8192,1.299492385786802
615,3827,8192,1.28
616,3828,8192,1.1228070175438596
617,3829,8192,1.3195876288659794
618,3830,8192,1.3195876288659794
619,3831,8192,1.299492385786802
620,3832,8192,1.3195876288659794
621,3833,8192,1.3195876288659794
622,3834,8192,1.3195876288659794
623,3835,8192,1.292929292929293
624,3836,8192,1.3264248704663213
625,3837,8192,1.326210134369435
626,3838,8192,1.3193751006603318
