idx,og Index,data (B),bandwidth (GB/s)
0,0,8192,1.2864321608040201
1,1,8192,1.3059142356129443
2,2,8192,1.3128205128205128
3,3,8192,1.3195876288659794
4,4,8192,1.3195876288659794
5,5,8192,1.2864321608040201
6,6,8192,1.3128205128205128
7,7,8192,1.3195876288659794
8,8,8192,1.312610158628425
9,9,8192,1.3128205128205128
10,10,8192,1.3128205128205128
11,11,8192,1.3333333333333333
12,16,8192,1.2673267326732673
13,17,8192,1.3059142356129443
14,18,8192,1.3195876288659794
15,19,8192,1.292929292929293
16,20,8192,1.3333333333333333
17,21,8192,1.326210134369435
18,22,8192,1.3128205128205128
19,23,8192,1.3264248704663213
20,24,8192,1.292929292929293
21,25,8192,1.3193751006603318
22,26,8192,1.3061224489795917
23,27,8192,1.3333333333333333
24,32,8192,1.3061224489795917
25,33,8192,1.2736318407960199
26,34,8192,1.3264248704663213
27,35,8192,1.3264248704663213
28,36,8192,1.28
29,37,8192,1.3195876288659794
30,38,8192,1.3195876288659794
31,39,8192,1.299492385786802
32,40,8192,1.299492385786802
33,41,8192,1.3063307287513952
34,42,8192,1.3128205128205128
35,43,8192,1.2992862807295797
36,48,8192,1.326210134369435
37,49,8192,1.3264248704663213
38,50,8192,1.3195876288659794
39,51,8192,1.3405334642448044
40,52,8192,1.299492385786802
41,53,8192,1.3061224489795917
42,54,8192,1.3195876288659794
43,55,8192,1.3989071038251366
44,56,8192,1.3061224489795917
45,57,8192,1.3195876288659794
46,58,8192,1.28
47,59,8192,1.3195876288659794
48,64,8192,1.3403141361256545
49,65,8192,1.3403141361256545
50,66,8192,1.3264248704663213
51,67,8192,1.3333333333333333
52,68,8192,1.3063307287513952
53,69,8192,1.3128205128205128
54,70,8192,1.3264248704663213
55,71,8192,1.3264248704663213
56,72,8192,1.3264248704663213
57,73,8192,1.2864321608040201
58,74,8192,1.312610158628425
59,75,8192,1.3264248704663213
60,80,8192,1.3403141361256545
61,81,8192,1.3333333333333333
62,82,8192,1.3333333333333333
63,83,8192,1.3264248704663213
64,84,8192,1.3333333333333333
65,85,8192,1.3405334642448044
66,86,8192,1.2864321608040201
67,87,8192,1.3333333333333333
68,88,8192,1.3333333333333333
69,89,8192,1.3061224489795917
70,90,8192,1.3264248704663213
71,91,8192,1.292929292929293
72,96,8192,1.3128205128205128
73,97,8192,1.3195876288659794
74,98,8192,1.3264248704663213
75,99,8192,1.3333333333333333
76,100,8192,1.3333333333333333
77,101,8192,1.2610837438423645
78,102,8192,1.3061224489795917
79,103,8192,1.3333333333333333
80,106,8192,1.3195876288659794
81,107,8192,1.3264248704663213
82,112,8192,1.292929292929293
83,113,8192,1.3195876288659794
84,114,8192,1.2020542920029347
85,115,8192,1.3264248704663213
86,116,8192,1.3333333333333333
87,117,8192,1.3195876288659794
88,118,8192,1.3198002255517964
89,119,8192,1.3264248704663213
90,120,8192,1.3061224489795917
91,121,8192,1.3333333333333333
92,122,8192,1.3128205128205128
93,123,8192,1.3128205128205128
94,128,8192,1.3128205128205128
95,129,8192,1.299492385786802
96,130,8192,1.3128205128205128
97,131,8192,1.3264248704663213
98,132,8192,1.3128205128205128
99,133,8192,1.3198002255517964
100,134,8192,1.3264248704663213
101,135,8192,1.3264248704663213
102,144,8192,1.3198002255517964
103,145,8192,1.3195876288659794
104,146,8192,1.3128205128205128
105,147,8192,1.2864321608040201
106,148,8192,1.28
107,149,8192,1.3403141361256545
108,150,8192,1.3195876288659794
109,151,8192,1.3195876288659794
110,152,8192,1.3331163547599674
111,153,8192,1.3403141361256545
112,154,8192,1.3128205128205128
113,155,8192,1.3061224489795917
114,160,8192,1.3266396761133603
115,161,8192,1.3061224489795917
116,162,8192,1.3264248704663213
117,163,8192,1.3264248704663213
118,164,8192,1.3264248704663213
119,165,8192,1.292929292929293
120,166,8192,1.326210134369435
121,167,8192,1.3195876288659794
122,168,8192,1.3333333333333333
123,169,8192,1.2862301774218872
124,170,8192,1.3333333333333333
125,171,8192,1.3333333333333333
126,176,8192,1.3195876288659794
127,177,8192,1.3128205128205128
128,178,8192,1.3264248704663213
129,179,8192,1.3333333333333333
130,180,8192,1.3061224489795917
131,181,8192,1.326210134369435
132,182,8192,1.248780487804878
133,183,8192,1.3266396761133603
134,184,8192,1.3128205128205128
135,185,8192,1.3264248704663213
136,186,8192,1.3061224489795917
137,187,8192,1.3333333333333333
138,192,8192,1.2673267326732673
139,193,8192,1.3689839572192513
140,194,8192,1.3689839572192513
141,195,8192,1.326210134369435
142,196,8192,1.299492385786802
143,197,8192,1.3264248704663213
144,198,8192,1.3264248704663213
145,199,8192,1.326210134369435
146,200,8192,1.3195876288659794
147,201,8192,1.3333333333333333
148,202,8192,1.3264248704663213
149,203,8192,1.3473684210526315
150,208,8192,1.3195876288659794
151,209,8192,1.3195876288659794
152,210,8192,1.3195876288659794
153,211,8192,1.3264248704663213
154,212,8192,1.3198002255517964
155,213,8192,1.3195876288659794
156,214,8192,1.3195876288659794
157,215,8192,1.3195876288659794
158,216,8192,1.3333333333333333
159,217,8192,1.3061224489795917
160,218,8192,1.299492385786802
161,219,8192,1.326210134369435
162,224,8192,1.3195876288659794
163,225,8192,1.292929292929293
164,226,8192,1.2864321608040201
165,227,8192,1.3264248704663213
166,228,8192,1.2864321608040201
167,229,8192,1.3331163547599674
168,230,8192,1.391304347826087
169,231,8192,1.326210134369435
170,232,8192,1.28
171,233,8192,1.3333333333333333
172,234,8192,1.3128205128205128
173,235,8192,1.3264248704663213
174,240,8192,1.2866342076331083
175,241,8192,1.3264248704663213
176,242,8192,1.3061224489795917
177,243,8192,1.3264248704663213
178,244,8192,1.3193751006603318
179,245,8192,1.299492385786802
180,246,8192,1.3333333333333333
181,247,8192,1.3264248704663213
182,248,8192,1.3473684210526315
183,249,8192,1.292929292929293
184,250,8192,1.3989071038251366
185,251,8192,1.3264248704663213
186,256,8192,1.3128205128205128
187,257,8192,1.28
188,258,8192,1.3195876288659794
189,259,8192,1.3333333333333333
190,260,8192,1.3333333333333333
191,261,8192,1.3333333333333333
192,262,8192,1.3061224489795917
193,263,8192,1.292929292929293
194,264,8192,1.3333333333333333
195,265,8192,1.299492385786802
196,266,8192,1.3333333333333333
197,267,8192,1.3195876288659794
198,272,8192,1.3195876288659794
199,273,8192,1.3061224489795917
200,274,8192,1.3193751006603318
201,275,8192,0.847682119205298
202,276,8192,1.3264248704663213
203,277,8192,1.299492385786802
204,278,8192,1.3333333333333333
205,279,8192,1.3264248704663213
206,280,8192,1.1376197750312456
207,281,8192,1.3333333333333333
208,282,8192,1.3264248704663213
209,283,8192,1.3264248704663213
210,288,8192,1.0666666666666667
211,289,8192,1.3333333333333333
212,290,8192,1.3333333333333333
213,291,8192,1.3264248704663213
214,292,8192,1.3128205128205128
215,293,8192,1.3061224489795917
216,294,8192,1.2862301774218872
217,295,8192,1.1428571428571428
218,296,8192,1.3331163547599674
219,297,8192,1.3264248704663213
220,298,8192,1.3333333333333333
221,299,8192,1.3128205128205128
222,304,8192,1.3264248704663213
223,305,8192,1.299492385786802
224,306,8192,1.3128205128205128
225,307,8192,1.3264248704663213
226,308,8192,1.3128205128205128
227,309,8192,1.3333333333333333
228,310,8192,1.28
229,311,8192,1.3333333333333333
230,312,8192,1.3195876288659794
231,313,8192,1.3264248704663213
232,314,8192,1.292929292929293
233,315,8192,1.326210134369435
234,320,8192,1.292929292929293
235,321,8192,1.3264248704663213
236,322,8192,1.28
237,323,8192,1.3333333333333333
238,324,8192,1.1743119266055047
239,325,8192,1.3333333333333333
240,326,8192,1.3331163547599674
241,327,8192,1.3195876288659794
242,328,8192,1.3061224489795917
243,329,8192,1.3195876288659794
244,330,8192,1.3837837837837839
245,331,8192,1.2992862807295797
246,336,8192,1.2736318407960199
247,337,8192,1.3264248704663213
248,338,8192,1.3333333333333333
249,339,8192,1.3333333333333333
250,340,8192,1.3264248704663213
251,341,8192,1.3059142356129443
252,342,8192,1.1327433628318584
253,343,8192,1.3264248704663213
254,344,8192,1.3264248704663213
255,345,8192,1.3333333333333333
256,346,8192,1.3061224489795917
257,347,8192,1.3331163547599674
258,352,8192,1.2992862807295797
259,353,8192,1.3193751006603318
260,354,8192,1.3195876288659794
261,355,8192,1.3198002255517964
262,356,8192,1.299492385786802
263,357,8192,1.3333333333333333
264,358,8192,1.2864321608040201
265,359,8192,1.3128205128205128
266,360,8192,1.3333333333333333
267,361,8192,1.3195876288659794
268,362,8192,1.3128205128205128
269,363,8192,1.3128205128205128
270,368,8192,1.3403141361256545
271,369,8192,1.1851851851851851
272,370,8192,1.3264248704663213
273,371,8192,1.3264248704663213
274,372,8192,1.3264248704663213
275,373,8192,0.8024292291115682
276,374,8192,1.3331163547599674
277,375,8192,1.3264248704663213
278,376,8192,1.3333333333333333
279,377,8192,1.2190476190476192
280,378,8192,1.3333333333333333
281,379,8192,1.3128205128205128
282,384,8192,1.326210134369435
283,385,8192,1.3264248704663213
284,386,8192,1.3061224489795917
285,387,8192,1.3333333333333333
286,388,8192,1.326210134369435
287,389,8192,1.3333333333333333
288,390,8192,1.2862301774218872
289,391,8192,1.3264248704663213
290,392,8192,1.326210134369435
291,393,8192,1.3264248704663213
292,394,8192,1.3264248704663213
293,395,8192,1.3331163547599674
294,400,8192,1.3128205128205128
295,401,8192,1.3264248704663213
296,402,8192,1.1377777777777778
297,403,8192,1.28
298,404,8192,1.3333333333333333
299,405,8192,1.3403141361256545
300,406,8192,1.3264248704663213
301,407,8192,1.3333333333333333
302,408,8192,1.326210134369435
303,409,8192,1.3403141361256545
304,410,8192,1.3128205128205128
305,411,8192,1.3331163547599674
306,416,8192,1.3333333333333333
307,417,8192,1.3333333333333333
308,418,8192,1.3193751006603318
309,419,8192,1.3264248704663213
310,420,8192,1.3264248704663213
311,421,8192,1.292929292929293
312,422,8192,1.3128205128205128
313,423,8192,1.3195876288659794
314,424,8192,1.3544973544973544
315,425,8192,1.299492385786802
316,426,8192,1.391304347826087
317,427,8192,1.326210134369435
318,432,8192,1.3264248704663213
319,433,8192,1.3195876288659794
320,434,8192,1.3128205128205128
321,435,8192,1.3400948797644365
322,436,8192,1.3403141361256545
323,437,8192,1.3264248704663213
324,438,8192,1.3195876288659794
325,439,8192,1.2130904783059382
326,440,8192,1.3264248704663213
327,441,8192,1.3195876288659794
328,442,8192,1.2673267326732673
329,443,8192,1.3193751006603318
330,448,8192,1.2992862807295797
331,449,8192,1.1327433628318584
332,450,8192,1.292929292929293
333,451,8192,1.3333333333333333
334,452,8192,1.3333333333333333
335,453,8192,1.3333333333333333
336,454,8192,1.28
337,455,8192,1.2549019607843137
338,456,8192,1.3264248704663213
339,457,8192,1.299492385786802
340,458,8192,1.3333333333333333
341,459,8192,1.3333333333333333
342,464,8192,1.28
343,465,8192,1.3544973544973544
344,466,8192,1.3264248704663213
345,467,8192,1.2864321608040201
346,468,8192,1.1428571428571428
347,469,8192,1.3195876288659794
348,470,8192,1.255094223992646
349,471,8192,1.2864321608040201
350,472,8192,1.1531531531531531
351,473,8192,1.3403141361256545
352,474,8192,1.3059142356129443
353,475,8192,1.3061224489795917
354,480,8192,1.3195876288659794
355,481,8192,1.3195876288659794
356,482,8192,1.3264248704663213
357,483,8192,1.3195876288659794
358,484,8192,1.3264248704663213
359,485,8192,1.3266396761133603
360,486,8192,1.3128205128205128
361,487,8192,1.3264248704663213
362,488,8192,1.3403141361256545
363,489,8192,1.299492385786802
364,490,8192,1.3544973544973544
365,491,8192,1.3193751006603318
366,496,8192,1.3333333333333333
367,497,8192,1.2018779342723005
368,498,8192,1.3128205128205128
369,499,8192,0.9481481481481482
370,500,8192,1.2425299560139542
371,501,8192,1.312610158628425
372,502,8192,1.3128205128205128
373,503,8192,1.3264248704663213
374,504,8192,1.3061224489795917
375,505,8192,1.0491803278688525
376,506,8192,1.3061224489795917
377,507,8192,1.326210134369435
378,512,8192,1.3403141361256545
379,513,8192,1.3195876288659794
380,514,8192,1.2549019607843137
381,515,8192,1.326210134369435
382,516,8192,1.1327433628318584
383,517,8192,1.3195876288659794
384,518,8192,1.3195876288659794
385,519,8192,1.3195876288659794
386,520,8192,1.1082251082251082
387,521,8192,1.3264248704663213
388,522,8192,1.1962616822429906
389,523,8192,1.3331163547599674
390,528,8192,1.3061224489795917
391,529,8192,1.3403141361256545
392,530,8192,1.3264248704663213
393,531,8192,1.326210134369435
394,532,8192,1.3128205128205128
395,533,8192,1.312610158628425
396,534,8192,1.3195876288659794
397,535,8192,1.3837837837837839
398,536,8192,1.3195876288659794
399,537,8192,1.3128205128205128
400,538,8192,1.3264248704663213
401,539,8192,1.3264248704663213
402,544,8192,1.2307692307692308
403,545,8192,1.326210134369435
404,546,8192,1.2864321608040201
405,547,8192,1.3195876288659794
406,548,8192,1.3128205128205128
407,549,8192,1.3195876288659794
408,550,8192,0.924187725631769
409,551,8192,1.3059142356129443
410,552,8192,1.2736318407960199
411,553,8192,0.8677966101694915
412,554,8192,1.3195876288659794
413,555,8192,1.3264248704663213
414,560,8192,1.3264248704663213
415,561,8192,1.3193751006603318
416,562,8192,1.2190476190476192
417,563,8192,1.2736318407960199
418,564,8192,1.3333333333333333
419,565,8192,1.2305843473035902
420,566,8192,1.3266396761133603
421,567,8192,1.3195876288659794
422,568,8192,1.3264248704663213
423,569,8192,1.3195876288659794
424,570,8192,1.3264248704663213
425,571,8192,1.3333333333333333
426,576,8192,0.7901234567901234
427,577,8192,1.3403141361256545
428,578,8192,1.3264248704663213
429,579,8192,1.3264248704663213
430,580,8192,1.1743119266055047
431,581,8192,0.839344262295082
432,582,8192,1.0406504065040652
433,583,8192,0.9377289377289377
434,584,8192,1.3128205128205128
435,585,8192,1.1377777777777778
436,586,8192,1.3264248704663213
437,587,8192,1.3264248704663213
438,592,8192,1.3333333333333333
439,593,8192,1.3128205128205128
440,594,8192,1.3195876288659794
441,595,8192,1.3264248704663213
442,596,8192,1.3264248704663213
443,597,8192,1.3264248704663213
444,598,8192,1.3333333333333333
445,599,8192,1.3195876288659794
446,600,8192,1.1962616822429906
447,601,8192,1.3198002255517964
448,602,8192,1.224697264165047
449,603,8192,1.3264248704663213
450,608,8192,1.2864321608040201
451,609,8192,1.3264248704663213
452,610,8192,1.3264248704663213
453,611,8192,1.3128205128205128
454,612,8192,1.3264248704663213
455,613,8192,0.9884169884169884
456,614,8192,1.299492385786802
457,615,8192,1.3547213494294692
458,616,8192,1.2018779342723005
459,617,8192,1.3333333333333333
460,618,8192,1.3333333333333333
461,619,8192,1.3195876288659794
462,624,8192,1.3333333333333333
463,625,8192,1.3128205128205128
464,626,8192,1.326210134369435
465,627,8192,1.299492385786802
466,628,8192,1.3128205128205128
467,629,8192,1.2673267326732673
468,630,8192,1.299492385786802
469,631,8192,1.3195876288659794
470,632,8192,1.3195876288659794
471,633,8192,1.3264248704663213
472,634,8192,1.3195876288659794
473,635,8192,1.292929292929293
474,640,8192,1.3264248704663213
475,641,8192,1.3128205128205128
476,642,8192,1.3195876288659794
477,643,8192,1.292929292929293
478,644,8192,1.312610158628425
479,645,8192,1.3473684210526315
480,646,8192,1.3264248704663213
481,647,8192,1.0534979423868314
482,648,8192,1.3333333333333333
483,649,8192,1.3195876288659794
484,650,8192,1.3264248704663213
485,651,8192,1.2307692307692308
486,656,8192,1.158371040723982
487,657,8192,1.3193751006603318
488,658,8192,1.3403141361256545
489,659,8192,1.3264248704663213
490,660,8192,1.3264248704663213
491,661,8192,1.3266396761133603
492,662,8192,1.158371040723982
493,663,8192,1.3264248704663213
494,664,8192,1.3128205128205128
495,665,8192,1.3264248704663213
496,666,8192,1.3061224489795917
497,667,8192,1.3195876288659794
498,672,8192,1.3128205128205128
499,673,8192,1.3264248704663213
500,674,8192,1.3061224489795917
501,675,8192,0.8560978158637266
502,678,8192,1.3195876288659794
503,680,8192,1.3061224489795917
504,681,8192,1.3128205128205128
505,682,8192,1.292929292929293
506,683,8192,1.3264248704663213
507,688,8192,1.3264248704663213
508,689,8192,1.3264248704663213
509,690,8192,1.3128205128205128
510,691,8192,1.326210134369435
511,692,8192,1.3333333333333333
512,693,8192,1.2862301774218872
513,694,8192,1.299492385786802
514,695,8192,1.1636363636363636
515,696,8192,1.3198002255517964
516,697,8192,1.3128205128205128
517,698,8192,1.3333333333333333
518,699,8192,1.3193751006603318
519,704,8192,0.9922480620155039
520,705,8192,1.3195876288659794
521,706,8192,1.3264248704663213
522,707,8192,1.3333333333333333
523,708,8192,1.3264248704663213
524,709,8192,1.3128205128205128
525,710,8192,1.3403141361256545
526,711,8192,1.299492385786802
527,712,8192,1.3333333333333333
528,713,8192,1.3195876288659794
529,714,8192,1.299492385786802
530,715,8192,1.3195876288659794
531,720,8192,1.3195876288659794
532,721,8192,1.3195876288659794
533,722,8192,1.3763440860215055
534,723,8192,1.3193751006603318
535,724,8192,1.0118577075098814
536,725,8192,1.3333333333333333
537,726,8192,1.3264248704663213
538,727,8192,1.3544973544973544
539,728,8192,1.3264248704663213
540,729,8192,1.3195876288659794
541,730,8192,1.3333333333333333
542,731,8192,1.3614758185142097
543,736,8192,1.3264248704663213
544,737,8192,1.3264248704663213
545,738,8192,1.3195876288659794
546,739,8192,1.3195876288659794
547,740,8192,1.3331163547599674
548,741,8192,1.3195876288659794
549,742,8192,1.3333333333333333
550,743,8192,1.3195876288659794
551,744,8192,1.3333333333333333
552,745,8192,1.2862301774218872
553,746,8192,1.3403141361256545
554,747,8192,1.3195876288659794
555,752,8192,1.003921568627451
556,753,8192,1.3195876288659794
557,754,8192,1.3264248704663213
558,755,8192,1.3193751006603318
559,756,8192,1.3195876288659794
560,757,8192,1.3400948797644365
561,758,8192,1.3128205128205128
562,759,8192,1.3195876288659794
563,760,8192,1.2610837438423645
564,761,8192,1.3403141361256545
565,762,8192,1.0405182268512638
566,763,8192,1.3264248704663213
567,768,8192,1.2864321608040201
568,769,8192,1.3061224489795917
569,770,8192,1.3403141361256545
570,771,8192,1.3193751006603318
571,772,8192,1.3264248704663213
572,773,8192,1.3331163547599674
573,774,8192,1.3195876288659794
574,775,8192,1.3264248704663213
575,776,8192,1.3061224489795917
576,777,8192,1.3195876288659794
577,778,8192,1.3264248704663213
578,779,8192,1.3128205128205128
579,784,8192,1.2931333859510654
580,785,8192,1.3195876288659794
581,786,8192,1.3333333333333333
582,787,8192,1.3333333333333333
583,788,8192,1.1743119266055047
584,789,8192,1.326210134369435
585,790,8192,1.2427184466019416
586,791,8192,1.1743119266055047
587,792,8192,1.3195876288659794
588,793,8192,1.3333333333333333
589,794,8192,1.3333333333333333
590,795,8192,1.3128205128205128
591,800,8192,1.2190476190476192
592,801,8192,1.3195876288659794
593,802,8192,1.158371040723982
594,803,8192,1.3195876288659794
595,804,8192,1.3195876288659794
596,805,8192,1.2610837438423645
597,806,8192,1.1428571428571428
598,807,8192,1.3264248704663213
599,808,8192,1.3193751006603318
600,809,8192,1.3128205128205128
601,810,8192,1.3128205128205128
602,811,8192,1.3264248704663213
603,816,8192,1.3264248704663213
604,817,8192,0.9624060150375939
605,818,8192,1.3617021276595744
606,819,8192,1.3264248704663213
607,820,8192,1.3195876288659794
608,821,8192,1.3264248704663213
609,822,8192,1.3128205128205128
610,823,8192,1.3264248704663213
611,824,8192,1.3195876288659794
612,825,8192,1.3195876288659794
613,826,8192,1.3333333333333333
614,827,8192,1.3195876288659794
615,832,8192,1.2673267326732673
616,833,8192,1.3195876288659794
617,834,8192,1.3333333333333333
618,835,8192,1.3266396761133603
619,836,8192,1.3264248704663213
620,837,8192,1.3195876288659794
621,838,8192,1.3195876288659794
622,839,8192,1.3193751006603318
623,840,8192,1.3333333333333333
624,841,8192,1.1906976744186046
625,842,8192,1.3195876288659794
626,843,8192,1.3264248704663213
627,848,8192,1.2671307037896364
628,849,8192,1.3195876288659794
629,850,8192,1.3264248704663213
630,851,8192,1.3198002255517964
631,852,8192,1.2673267326732673
632,853,8192,1.3264248704663213
633,854,8192,1.3198002255517964
634,855,8192,1.3617021276595744
635,856,8192,1.2549019607843137
