idx,og Index,data (B),bandwidth (GB/s)
0,2,32768,3.750915750915751
1,3,32768,3.9689922480620154
2,4,32768,3.764705882352941
3,5,32768,3.9689922480620154
4,6,32768,3.6056338028169015
5,7,32768,3.9689922480620154
6,8,32768,3.778162112302548
7,9,32768,4.046930962084723
8,12,32768,3.764705882352941
9,13,32768,4.096
10,14,32768,3.657142857142857
11,15,32768,3.9689922480620154
12,16,32768,3.7372262773722627
13,17,32768,4.015686274509804
14,18,32768,3.750915750915751
15,19,32768,3.9844357976653697
16,20,32768,3.8641509433962264
17,21,32768,3.983951367781155
18,22,32768,3.592982456140351
19,23,32768,4
20,24,32768,3.6702508960573477
21,25,32768,3.893536121673004
22,26,32768,3.669839847687311
23,27,32768,4.129032258064516
24,28,32768,3.764705882352941
25,29,32768,3.9844357976653697
26,30,32768,3.7097248952790673
27,31,32768,3.9685115659440475
28,32,32768,3.7236363636363636
29,33,32768,3.9844357976653697
30,34,32768,3.7236363636363636
31,35,32768,4.095488063992001
32,37,32768,3.8496240601503757
33,38,32768,3.9689922480620154
34,39,32768,3.9689922480620154
35,40,32768,3.7097248952790673
36,41,32768,4
37,42,32768,3.696750902527076
38,43,32768,3.9844357976653697
39,44,32768,3.683453237410072
40,45,32768,3.9083969465648853
41,46,32768,3.631205673758865
42,47,32768,3.863695318948237
43,48,32768,3.6702508960573477
44,49,32768,4.015686274509804
45,50,32768,3.7372262773722627
46,51,32768,3.9844357976653697
47,52,32768,3.7232132712191794
48,53,32768,3.9536679536679538
49,54,32768,3.696750902527076
50,55,32768,3.9685115659440475
51,56,32768,3.764705882352941
52,57,32768,3.9384615384615387
53,58,32768,3.7504864369921025
54,59,32768,3.9689922480620154
55,60,32768,3.7097248952790673
56,61,32768,4
57,62,32768,3.7236363636363636
58,63,32768,3.878787878787879
59,64,32768,3.7504864369921025
60,65,32768,3.9844357976653697
61,66,32768,3.7785977859778597
62,67,32768,3.9384615384615387
63,68,32768,3.631205673758865
64,69,32768,3.893073541641915
65,70,32768,3.710144927536232
66,71,32768,3.878787878787879
67,72,32768,3.764705882352941
68,73,32768,3.9689922480620154
69,76,32768,3.750915750915751
70,77,32768,4.111933743255114
71,78,32768,3.7236363636363636
72,79,32768,3.9384615384615387
73,80,32768,3.657142857142857
74,81,32768,3.9536679536679538
75,82,32768,3.7372262773722627
76,83,32768,3.9233716475095783
77,84,32768,3.9229019513947083
78,85,32768,4.111933743255114
79,86,32768,3.7785977859778597
80,87,32768,3.9844357976653697
81,88,32768,3.764705882352941
82,89,32768,3.9995117783473697
83,90,32768,3.710144927536232
84,91,32768,3.9689922480620154
85,92,32768,3.8352059925093633
86,93,32768,3.983951367781155
87,94,32768,3.9233716475095783
88,95,32768,3.9689922480620154
89,96,32768,3.7785977859778597
90,97,32768,3.9536679536679538
91,98,32768,3.764705882352941
92,99,32768,3.878787878787879
93,100,32768,3.750915750915751
94,101,32768,3.9083969465648853
95,102,32768,3.764705882352941
96,103,32768,4
97,104,32768,3.764705882352941
98,105,32768,3.9384615384615387
99,106,32768,3.7236363636363636
100,107,32768,3.9844357976653697
101,108,32768,3.764705882352941
102,109,32768,4
103,110,32768,3.7372262773722627
104,111,32768,3.9233716475095783
105,112,32768,3.696750902527076
106,113,32768,3.9689922480620154
107,114,32768,3.618374558303887
108,115,32768,4
109,116,32768,3.7925925925925927
110,117,32768,4.111933743255114
111,118,32768,3.657142857142857
112,119,32768,3.983951367781155
113,120,32768,3.7925925925925927
114,121,32768,3.9536679536679538
115,122,32768,3.7925925925925927
116,123,32768,3.9689922480620154
117,124,32768,3.764273406088455
118,125,32768,4.031000123016361
119,126,32768,3.750915750915751
120,127,32768,4
121,128,32768,3.764705882352941
122,129,32768,3.9689922480620154
123,130,32768,3.696750902527076
124,131,32768,3.9689922480620154
125,132,32768,3.764273406088455
126,133,32768,3.878787878787879
127,134,32768,3.7785977859778597
128,135,32768,3.9844357976653697
129,136,32768,3.683453237410072
130,137,32768,3.9844357976653697
131,140,32768,3.806691449814126
132,141,32768,3.9689922480620154
133,142,32768,3.710144927536232
134,143,32768,4.096
135,144,32768,3.7236363636363636
136,145,32768,3.9689922480620154
137,146,32768,3.6702508960573477
138,147,32768,4
139,148,32768,3.750915750915751
140,149,32768,3.9083969465648853
141,150,32768,3.7097248952790673
142,151,32768,3.9844357976653697
143,152,32768,3.7236363636363636
144,153,32768,3.9689922480620154
145,154,32768,3.696750902527076
146,155,32768,3.9689922480620154
147,156,32768,3.7785977859778597
148,157,32768,4
149,158,32768,3.764705882352941
150,159,32768,3.983951367781155
151,160,32768,3.764705882352941
152,161,32768,3.9844357976653697
153,162,32768,3.750915750915751
154,163,32768,3.9844357976653697
155,164,32768,3.7097248952790673
156,165,32768,3.9536679536679538
157,166,32768,3.683039226705631
158,167,32768,3.9384615384615387
159,168,32768,3.7236363636363636
160,169,32768,4
161,170,32768,3.683453237410072
162,171,32768,3.9844357976653697
163,172,32768,3.764705882352941
164,173,32768,3.9844357976653697
165,174,32768,3.696750902527076
166,175,32768,4.112449799196787
167,176,32768,3.683453237410072
168,177,32768,3.9689922480620154
169,178,32768,3.683453237410072
170,179,32768,3.893536121673004
171,180,32768,3.7236363636363636
172,181,32768,4
173,182,32768,3.56794425087108
174,183,32768,3.9531909759922788
175,184,32768,3.764705882352941
176,185,32768,4.19672131147541
177,186,32768,3.683453237410072
178,187,32768,4
179,188,32768,3.7785977859778597
180,189,32768,4.145748987854251
181,190,32768,3.683867341202923
182,191,32768,4.015686274509804
183,192,32768,3.7785977859778597
184,193,32768,3.9689922480620154
185,194,32768,3.710144927536232
186,195,32768,4
187,196,32768,3.6702508960573477
188,197,32768,3.9844357976653697
189,198,32768,3.764705882352941
190,199,32768,3.9844357976653697
191,200,32768,3.710144927536232
192,201,32768,4
193,204,32768,3.7372262773722627
194,205,32768,3.9844357976653697
195,206,32768,3.7236363636363636
196,207,32768,3.9844357976653697
197,208,32768,3.7504864369921025
198,209,32768,3.9844357976653697
199,210,32768,3.7236363636363636
200,211,32768,3.9689922480620154
201,212,32768,3.893073541641915
202,213,32768,3.9536679536679538
203,214,32768,3.7372262773722627
204,215,32768,3.983951367781155
205,216,32768,3.7785977859778597
206,217,32768,3.806249274015565
207,218,32768,3.7236363636363636
208,219,32768,4
209,220,32768,3.7785977859778597
210,221,32768,3.9689922480620154
211,222,32768,3.7785977859778597
212,223,32768,3.9844357976653697
213,224,32768,3.7372262773722627
214,225,32768,3.9536679536679538
215,226,32768,3.7504864369921025
216,227,32768,3.9536679536679538
217,228,32768,3.7785977859778597
218,229,32768,3.9689922480620154
219,230,32768,3.710144927536232
220,231,32768,3.9689922480620154
221,232,32768,3.750915750915751
222,233,32768,3.9844357976653697
223,234,32768,3.7105650549201674
224,235,32768,3.9689922480620154
225,236,32768,3.764705882352941
226,237,32768,3.9685115659440475
227,238,32768,3.710144927536232
228,239,32768,3.9689922480620154
229,240,32768,3.7785977859778597
230,241,32768,3.9541450464583083
231,242,32768,3.7785977859778597
232,243,32768,3.9844357976653697
233,244,32768,3.710144927536232
234,245,32768,4
235,246,32768,3.6963338973491258
236,247,32768,3.9689922480620154
237,248,32768,3.764705882352941
238,249,32768,3.9689922480620154
239,250,32768,3.764705882352941
240,251,32768,3.893536121673004
241,252,32768,3.764273406088455
242,253,32768,4.031496062992126
243,254,32768,3.893536121673004
244,255,32768,3.9844357976653697
245,256,32768,3.7785977859778597
246,257,32768,3.9689922480620154
247,258,32768,3.696750902527076
248,259,32768,3.9844357976653697
249,260,32768,3.806691449814126
250,261,32768,3.9689922480620154
251,262,32768,3.696750902527076
252,263,32768,3.9995117783473697
253,264,32768,3.764705882352941
254,265,32768,3.9689922480620154
255,268,32768,3.8496240601503757
256,269,32768,3.9689922480620154
257,270,32768,3.618374558303887
258,271,32768,4
259,272,32768,3.683453237410072
260,273,32768,3.9844357976653697
261,274,32768,3.6702508960573477
262,275,32768,4
263,276,32768,3.7504864369921025
264,277,32768,3.9689922480620154
265,278,32768,3.683453237410072
266,279,32768,3.9689922480620154
267,280,32768,3.806249274015565
268,281,32768,4.047430830039525
269,282,32768,3.7790335601430054
270,283,32768,3.9844357976653697
271,284,32768,3.764705882352941
272,285,32768,3.9844357976653697
273,286,32768,3.6056338028169015
274,287,32768,4.079173409685049
275,288,32768,3.592982456140351
276,289,32768,4.046930962084723
277,290,32768,3.764705882352941
278,291,32768,4.2139917695473255
279,292,32768,3.710144927536232
280,293,32768,4.079681274900398
281,294,32768,3.764705882352941
282,295,32768,3.9384615384615387
283,296,32768,3.750915750915751
284,297,32768,3.9844357976653697
285,298,32768,3.657142857142857
286,299,32768,3.9689922480620154
287,300,32768,3.7785977859778597
288,301,32768,3.9233716475095783
289,302,32768,3.710144927536232
290,303,32768,3.9689922480620154
291,304,32768,3.618374558303887
292,305,32768,4
293,306,32768,3.7232132712191794
294,307,32768,3.9844357976653697
295,308,32768,3.750915750915751
296,309,32768,3.9844357976653697
297,310,32768,3.6702508960573477
298,311,32768,3.9689922480620154
299,312,32768,3.7785977859778597
300,313,32768,3.9536679536679538
301,314,32768,3.7236363636363636
302,315,32768,3.9844357976653697
303,316,32768,3.8496240601503757
304,317,32768,3.8352059925093633
305,318,32768,3.764705882352941
306,319,32768,3.9689922480620154
307,320,32768,3.7372262773722627
308,321,32768,4
309,322,32768,3.710144927536232
310,323,32768,3.9689922480620154
311,324,32768,3.710144927536232
312,325,32768,3.9685115659440475
313,326,32768,3.7785977859778597
314,327,32768,3.9685115659440475
315,328,32768,3.7232132712191794
316,329,32768,3.9689922480620154
317,332,32768,3.764705882352941
318,333,32768,3.9229019513947083
319,334,32768,3.696750902527076
320,335,32768,3.9536679536679538
321,336,32768,3.6441281138790034
322,337,32768,4.128512032254
323,338,32768,3.750915750915751
324,339,32768,3.9689922480620154
325,340,32768,3.9536679536679538
326,341,32768,3.9995117783473697
327,342,32768,3.710144927536232
328,343,32768,4.19672131147541
329,344,32768,3.764705882352941
330,345,32768,3.9536679536679538
331,346,32768,3.764705882352941
332,347,32768,3.9536679536679538
333,348,32768,3.764705882352941
334,349,32768,3.8641509433962264
335,350,32768,3.696750902527076
336,351,32768,3.8641509433962264
337,352,32768,3.750915750915751
338,353,32768,4.145748987854251
339,354,32768,3.6963338973491258
340,355,32768,3.9685115659440475
341,356,32768,3.696750902527076
342,357,32768,3.9689922480620154
343,358,32768,3.7372262773722627
344,359,32768,4.080189266591956
345,360,32768,3.751345163136806
346,361,32768,3.9384615384615387
347,362,32768,3.696750902527076
348,363,32768,3.9844357976653697
349,364,32768,3.6702508960573477
350,365,32768,3.9233716475095783
351,366,32768,3.7236363636363636
352,367,32768,3.9536679536679538
353,368,32768,3.7785977859778597
354,369,32768,3.9995117783473697
355,370,32768,3.7372262773722627
356,371,32768,4.096
357,372,32768,3.7925925925925927
358,373,32768,3.893536121673004
359,374,32768,3.7785977859778597
360,375,32768,3.9689922480620154
361,376,32768,3.764705882352941
362,377,32768,3.9531909759922788
363,378,32768,3.8208955223880596
364,379,32768,3.9689922480620154
365,380,32768,3.764705882352941
366,381,32768,4.015686274509804
367,382,32768,3.764705882352941
368,383,32768,3.9384615384615387
369,384,32768,3.9536679536679538
370,385,32768,3.9083969465648853
371,386,32768,3.6441281138790034
372,387,32768,4.096
373,388,32768,3.7785977859778597
374,389,32768,4
375,390,32768,3.710144927536232
376,391,32768,4.063492063492063
377,392,32768,3.764705882352941
378,393,32768,3.9844357976653697
379,396,32768,3.7236363636363636
380,397,32768,4.047430830039525
381,398,32768,3.6702508960573477
382,399,32768,4
383,400,32768,3.9531909759922788
384,401,32768,3.9689922480620154
385,402,32768,3.683453237410072
386,403,32768,3.9844357976653697
387,404,32768,3.657142857142857
388,405,32768,4.112449799196787
389,406,32768,3.657142857142857
390,407,32768,3.969473046638401
391,408,32768,3.8496240601503757
392,409,32768,3.9685115659440475
393,410,32768,3.710144927536232
394,411,32768,3.9689922480620154
395,412,32768,3.7236363636363636
396,413,32768,3.983951367781155
397,414,32768,3.710144927536232
398,415,32768,3.9844357976653697
399,416,32768,3.7785977859778597
400,417,32768,3.9536679536679538
401,418,32768,3.618374558303887
402,419,32768,3.9844357976653697
403,420,32768,3.9079308288610615
404,421,32768,3.9844357976653697
405,422,32768,3.696750902527076
406,423,32768,3.9536679536679538
407,424,32768,3.750915750915751
408,425,32768,3.9844357976653697
409,426,32768,3.6702508960573477
410,427,32768,3.9844357976653697
411,428,32768,3.764705882352941
412,429,32768,4.031496062992126
413,430,32768,3.696750902527076
414,431,32768,3.9844357976653697
415,432,32768,3.764705882352941
416,433,32768,3.9844357976653697
417,434,32768,3.750915750915751
418,435,32768,3.9844357976653697
419,436,32768,3.6702508960573477
420,437,32768,3.983951367781155
421,438,32768,3.683039226705631
422,439,32768,3.9844357976653697
423,440,32768,3.683453237410072
424,441,32768,3.983951367781155
425,442,32768,3.710144927536232
426,443,32768,3.9233716475095783
427,444,32768,3.7504864369921025
428,445,32768,3.9689922480620154
429,446,32768,3.7372262773722627
430,447,32768,4
431,448,32768,3.7236363636363636
432,449,32768,4.080189266591956
433,450,32768,3.7372262773722627
434,451,32768,4.062988220706758
435,452,32768,3.764705882352941
436,453,32768,3.9531909759922788
437,454,32768,3.696750902527076
438,455,32768,4
439,456,32768,3.631205673758865
440,457,32768,4.046930962084723
