idx,og Index,data (B),bandwidth (GB/s)
0,0,134676480,11.90080576428313
1,2,134676480,11.403565087413389
2,4,134676480,11.887393746138901
3,6,134676480,11.302623656939117
4,10,134742016,10.35113642238765
5,12,134742016,11.909862586955988
6,14,134742016,10.406008673449135
7,16,134742016,11.949544835043055
8,18,134742016,10.577387338066108
9,20,134742016,11.877042278164913
10,22,134742016,10.525509566399863
11,24,134742016,11.940970270406554
12,27,134742016,12.34997475323105
13,28,134742016,12.339081381315408
14,31,134742016,12.335430434989986
15,32,134742016,11.544056185144905
16,34,134742016,11.309368976197634
17,36,134742016,11.618145868579646
18,38,134742016,11.07604511041108
19,40,134742016,11.638537684622115
20,42,134742016,11.402379062248324
21,44,134742016,11.60789573209026
22,46,134742016,11.1426684298624
23,48,134742016,11.550990550772719
24,50,134742016,11.106106486795602
25,52,134742016,11.647197708352621
26,54,134742016,11.385237149319199
27,56,134742016,11.617952529035394
28,58,134742016,11.050784459453807
29,60,134742016,11.666721879434537
30,62,134742016,11.25618780326677
31,64,134742016,11.93734802235371
32,66,134742016,11.32308494909394
33,68,134742016,11.95154490077856
34,70,134742016,11.313987940547452
35,74,134807552,10.380286199566608
36,76,134807552,11.940953697471272
37,78,134807552,10.426944127472616
38,80,134807552,11.955321882112763
39,82,134807552,10.509376208354642
40,84,134807552,12.346674841148502
41,87,134807552,12.338573455247719
42,88,134807552,12.333263436557331
43,90,134807552,11.269708303119444
44,92,134807552,11.610180903700323
45,94,134807552,11.380158825363266
46,96,134807552,11.585403965045666
47,98,134807552,11.373582874436098
48,100,134807552,11.671523208623283
49,102,134807552,11.13568192194407
50,104,134807552,11.643232978836327
51,106,134807552,11.380189567466434
52,108,134807552,11.5898980954256
53,110,134807552,11.181792151750649
54,112,134807552,11.672978525260667
55,114,134807552,11.2050210310951
56,116,134807552,11.6470636313078
57,118,134807552,11.359260995072818
58,120,134807552,11.619788045562878
59,122,134807552,11.209134433895589
60,124,134807552,11.640818991087674
61,126,134807552,11.224126590397947
62,128,134807552,11.937231742792216
63,130,134807552,11.403293015476734
64,132,134807552,11.905890444918867
65,134,134807552,11.293635412778938
66,138,134873088,10.278703557986999
67,140,134873088,11.820079495159987
68,142,134873088,10.354307587367988
69,144,134873088,11.835048456161307
70,147,134873088,12.345475748061768
71,148,134873088,11.3634044239677
72,150,134873088,10.996511967024428
73,152,134873088,11.462328073264755
74,154,134873088,11.220705058785681
75,156,134873088,11.567051082708483
76,158,134873088,11.31574967453387
77,160,134873088,11.484504278341838
78,162,134873088,11.238296424258767
79,164,134873088,11.455007236185002
80,166,134873088,11.004205440637884
81,168,134873088,11.568066999420024
82,170,134873088,11.293586156944345
83,172,134873088,11.514593027320984
84,174,134873088,11.071006316411589
85,176,134873088,11.494495475472338
86,178,134873088,11.0011321436798
87,180,134873088,11.59329981579393
88,182,134873088,11.330868832675035
89,184,134873088,11.64667121112763
90,186,134873088,11.019916447626978
91,188,134873088,11.55556994935183
92,190,134873088,11.096101208737345
93,192,134873088,11.835480496167927
94,194,134873088,11.268734918584482
95,196,134873088,11.800850443241414
96,198,134873088,11.173526266588418
97,202,134938624,10.273001205609205
98,204,134938624,11.964229656324132
99,206,134938624,10.557970570550129
100,208,134938624,12.202111491397352
101,210,134938624,11.051478926382181
102,212,134938624,11.655584419847173
103,214,134938624,11.141237472688456
104,216,134938624,11.631471839250628
105,218,134938624,11.283351217914472
106,220,134938624,11.682095547252974
107,222,134938624,11.362554049308969
108,224,134938624,11.670067718044345
109,226,134938624,11.391900659316985
110,228,134938624,11.68964110859193
111,230,134938624,11.16480668776589
112,232,134938624,11.642165499375395
113,234,134938624,11.372973446777667
114,236,134938624,11.631247258410179
115,238,134938624,11.1210505815988
116,240,134938624,11.685947059366065
117,242,134938624,11.132765397553671
118,244,134938624,11.54387358311494
119,246,134938624,11.332018165341491
120,248,134938624,11.621790657669663
121,250,134938624,11.024030818583075
122,252,134938624,11.658420184150314
123,254,134938624,11.313503618362638
124,256,134938624,11.910565867098303
125,258,134938624,11.334577736055026
126,260,134938624,11.970276083829335
127,262,134938624,11.35606690638025
128,266,135004160,10.31019125655517
129,268,135004160,12.333847410524577
130,270,135004160,12.01534784339162
131,272,135004160,11.56353439587234
132,274,135004160,11.125484427809656
133,276,135004160,11.6110177766945
134,278,135004160,11.124838097391578
135,280,135004160,11.626921332607376
136,282,135004160,11.334903155052835
137,284,135004160,11.665404681588765
138,286,135004160,11.396848404216028
139,288,135004160,11.6520652088167
140,290,135004160,11.378221760102727
141,292,135004160,11.663566413454122
142,294,135004160,11.108026009093985
143,296,135004160,11.683786925795268
144,298,135004160,11.414362494947186
145,300,135004160,11.682623195955687
146,302,135004160,11.114961800700057
147,304,135004160,11.699761817521924
148,306,135004160,11.161215986105624
149,308,135004160,11.712559398197744
150,310,135004160,11.392262934102515
151,312,135004160,11.655607275119541
152,314,135004160,11.042577804628138
153,316,135004160,11.679161686955341
154,318,135004160,11.256962946638554
155,320,135004160,11.935634081356257
156,322,135004160,11.344900741900032
157,324,135004160,11.945197828943137
158,326,135004160,11.302319440755026
159,330,135069696,10.334618041389982
160,332,135069696,11.655791039250687
161,334,135069696,11.066679371759903
162,336,135069696,11.707194493281111
163,338,135069696,11.108123644788595
164,340,135069696,11.69153089632704
165,342,135069696,11.068624643876628
166,344,135069696,11.668776703930755
167,346,135069696,11.357432412320037
168,348,135069696,11.695385901413053
169,350,135069696,11.381228186175978
170,352,135069696,11.654599249831096
171,354,135069696,11.34778367800753
172,356,135069696,11.648810722484033
173,358,135069696,11.102163311570623
174,360,135069696,11.671487038243109
175,362,135069696,11.379233807765411
176,364,135069696,11.640906653456316
177,366,135069696,11.10786055397156
178,368,135069696,11.646142037554345
179,370,135069696,11.099419035690296
180,372,135069696,11.71765955121098
181,374,135069696,11.385065494829169
182,376,135069696,11.635643898703252
183,378,135069696,11.058445164537213
184,380,135069696,11.616142682020042
185,382,135069696,11.242389271538647
186,384,135069696,11.955498572497689
187,386,135069696,11.321637662186784
188,388,135069696,11.962987017645512
189,390,135069696,11.286670459816497
190,394,135135232,10.362035487198094
191,396,135135232,11.700153802623545
192,398,135135232,11.029106638590992
193,400,135135232,11.67221192592505
194,402,135135232,11.142191801039639
195,404,135135232,11.677666707079927
196,406,135135232,11.117141156805923
197,408,135135232,11.63429788744896
198,410,135135232,11.304994224746094
199,412,135135232,11.690921411898566
200,414,135135232,11.352740253680613
201,416,135135232,11.678700139183144
202,418,135135232,11.355609847343421
203,420,135135232,11.67279266604192
204,422,135135232,11.092903098915182
205,424,135135232,11.641033809204874
206,426,135135232,11.322574469249211
207,428,135135232,11.65739037253983
208,430,135135232,11.086321634775755
209,432,135135232,11.712029226158043
210,434,135135232,11.150693481424785
211,436,135135232,11.641130078841849
212,438,135135232,11.350359248941546
213,440,135135232,11.648868944910905
214,442,135135232,11.060941850248028
215,444,135135232,11.665021990732049
216,446,135135232,11.271230283096019
217,448,135135232,11.977210058907016
218,450,135135232,11.373562410606992
219,452,135135232,11.959571787265041
220,454,135135232,11.311051154640097
