idx,og Index,data (B),bandwidth (GB/s)
0,32,16384,2.115702479338843
1,34,16384,2.064516129032258
2,38,16384,2.064516129032258
3,40,16384,2.089795918367347
4,42,16384,2.0237154150197627
5,44,16384,2.12448132780083
6,45,16384,2.3703703703703702
7,46,16384,2.0728744939271255
8,47,16384,2.2651735103000137
9,48,16384,2.115702479338843
10,50,16384,2.048
11,52,16384,2.0980919451914457
12,54,16384,2.12448132780083
13,56,16384,2.1154293092317626
14,58,16384,2.0980919451914457
15,60,16384,2.115702479338843
16,64,16384,2.1974248927038627
17,65,16384,2.265486725663717
18,66,16384,2.089795918367347
19,67,16384,2.3378995433789953
20,68,16384,2.3486238532110093
21,69,16384,2.206896551724138
22,70,16384,2.2358078602620086
23,71,16384,2.3813953488372093
24,72,16384,2.226086956521739
25,73,16384,2.2755555555555556
26,74,16384,2.1974248927038627
27,75,16384,1.7716262975778547
28,76,16384,2.089795918367347
29,77,16384,2.1422594142259412
30,78,16384,2.1333333333333333
31,79,16384,2.3813953488372093
32,80,16384,1.9393939393939394
33,81,16384,2.359447004608295
34,82,16384,2.359447004608295
35,83,16384,2.3703703703703702
36,84,16384,1.8892988929889298
37,85,16384,2.0237154150197627
38,86,16384,2.3703703703703702
39,87,16384,1.9768339768339769
40,88,16384,2.295964125560538
41,89,16384,2.133055591719828
42,90,16384,2.1512605042016806
43,91,16384,2.3813953488372093
44,92,16384,2.015748031496063
45,93,16384,2.0980919451914457
46,94,16384,1.8823529411764706
47,95,16384,1.9465367708209576
48,96,16384,2.3063063063063063
49,97,16384,2.3486238532110093
50,98,16384,2.1512605042016806
51,99,16384,2.12448132780083
52,100,16384,1.9393939393939394
53,101,16384,2.3378995433789953
54,102,16384,1.9616858237547892
55,103,16384,1.9689941112847014
56,104,16384,2.359447004608295
57,105,16384,1.9768339768339769
58,106,16384,2.2164502164502164
59,107,16384,2.0234654810423613
60,108,16384,2.3378995433789953
61,109,16384,2.265486725663717
62,110,16384,2.245614035087719
63,111,16384,1.8220640569395017
64,112,16384,2.3486238532110093
65,113,16384,2.3703703703703702
66,114,16384,2.064256016127
67,115,16384,2.2857142857142856
68,116,16384,1.8962962962962964
69,117,16384,2.169491525423729
70,118,16384,2.226086956521739
71,119,16384,2.295964125560538
72,120,16384,2.0317460317460316
73,121,16384,2.0562248995983934
74,122,16384,2.3813953488372093
75,123,16384,2.2164502164502164
76,124,16384,2.048
77,125,16384,2.245614035087719
78,128,16384,2.0813008130081303
79,129,16384,2.1974248927038627
80,130,16384,2.3703703703703702
81,131,16384,2.160337552742616
82,132,16384,2.359447004608295
83,133,16384,2.359447004608295
84,134,16384,2.3703703703703702
85,135,16384,2.265486725663717
86,136,16384,2.3703703703703702
87,137,16384,2.3813953488372093
88,138,16384,2.370027484449588
89,139,16384,2.295964125560538
90,140,16384,2.316742081447964
91,141,16384,2.3486238532110093
92,142,16384,2.3703703703703702
93,143,16384,2.327272727272727
94,144,16384,2.359447004608295
95,145,16384,2.3703703703703702
96,146,16384,2.316742081447964
97,147,16384,2.3378995433789953
98,148,16384,1.9692307692307693
99,149,16384,2.3486238532110093
100,150,16384,2.392523364485981
101,151,16384,2.3703703703703702
102,152,16384,2.348287229468253
103,153,16384,2.3703703703703702
104,154,16384,2.359447004608295
105,155,16384,2.3378995433789953
106,156,16384,2.359447004608295
107,157,16384,2.359447004608295
108,158,16384,2.3813953488372093
109,159,16384,2.3378995433789953
110,160,16384,2.359447004608295
111,161,16384,2.359447004608295
112,162,16384,2.370027484449588
113,163,16384,2.316742081447964
114,164,16384,2.160337552742616
115,165,16384,2.3378995433789953
116,166,16384,2.316742081447964
117,167,16384,2.1072668810289388
118,168,16384,2.370027484449588
119,169,16384,2.3703703703703702
120,170,16384,2.3486238532110093
121,171,16384,2.327272727272727
122,172,16384,2.370713355520185
123,173,16384,2.359447004608295
124,174,16384,2.3703703703703702
125,175,16384,2.316742081447964
126,176,16384,2.3591072714182864
127,177,16384,2.359447004608295
128,178,16384,2.3703703703703702
129,179,16384,2.327272727272727
130,180,16384,2.2453062902562695
131,181,16384,2.3703703703703702
132,182,16384,2.316742081447964
133,183,16384,1.9844961240310077
134,184,16384,2.359447004608295
135,185,16384,2.359447004608295
136,186,16384,2.3591072714182864
137,187,16384,2.3378995433789953
138,188,16384,2.359447004608295
139,189,16384,2.359447004608295
140,192,16384,2.3813953488372093
141,193,16384,2.3063063063063063
142,194,16384,2.3486238532110093
143,195,16384,2.359447004608295
144,196,16384,2.359447004608295
145,197,16384,2.392523364485981
146,198,16384,2.3813953488372093
147,199,16384,2.3486238532110093
148,200,16384,2.359447004608295
149,201,16384,2.3378995433789953
150,202,16384,2.3378995433789953
151,203,16384,2.3813953488372093
152,204,16384,2.392523364485981
153,205,16384,2.3813953488372093
154,206,16384,1.9176029962546817
155,207,16384,1.9997558891736849
156,208,16384,2.3486238532110093
157,209,16384,2.359447004608295
158,210,16384,2.392523364485981
159,211,16384,2.295964125560538
160,212,16384,2.3813953488372093
161,213,16384,2.3813953488372093
162,214,16384,2.3703703703703702
163,215,16384,2.3703703703703702
164,216,16384,2.3813953488372093
165,217,16384,2.381049266095044
166,218,16384,2.3486238532110093
167,219,16384,2.392523364485981
168,220,16384,2.359447004608295
169,221,16384,2.3703703703703702
170,222,16384,1.896076842957991
171,223,16384,2.3486238532110093
172,224,16384,2.3813953488372093
173,225,16384,1.695364238410596
174,226,16384,2.2853954526433253
175,227,16384,2.3703703703703702
176,228,16384,2.3703703703703702
177,229,16384,2.3703703703703702
178,230,16384,2.3813953488372093
179,231,16384,2.3486238532110093
180,232,16384,2.3813953488372093
181,233,16384,2.3486238532110093
182,234,16384,2.3813953488372093
183,235,16384,2.3269421957108367
184,236,16384,2.3703703703703702
185,237,16384,2.392523364485981
186,238,16384,2.265800027658692
187,239,16384,2.245614035087719
188,240,16384,2.3703703703703702
189,241,16384,2.3813953488372093
190,242,16384,2.3813953488372093
191,243,16384,2.3489605734767025
192,244,16384,2.3486238532110093
193,245,16384,2.370027484449588
194,246,16384,2.392523364485981
195,247,16384,2.3813953488372093
196,248,16384,2.3703703703703702
197,249,16384,2.381049266095044
198,250,16384,2.0813008130081303
199,251,16384,2.3375659865886718
200,252,16384,2.3703703703703702
201,253,16384,2.3813953488372093
202,256,16384,2.359447004608295
203,257,16384,2.2755555555555556
204,258,16384,2.3063063063063063
205,259,16384,2.2857142857142856
206,260,16384,2.3486238532110093
207,261,16384,2.2755555555555556
208,262,16384,2.359447004608295
209,263,16384,2.3378995433789953
210,264,16384,2.359447004608295
211,265,16384,1.9176029962546817
212,266,16384,2.3063063063063063
213,267,16384,2.3378995433789953
214,268,16384,2.359447004608295
215,269,16384,2.359447004608295
216,270,16384,2.359447004608295
217,271,16384,2.3378995433789953
218,272,16384,2.359447004608295
219,273,16384,2.295964125560538
220,274,16384,2.3813953488372093
221,275,16384,2.3378995433789953
222,276,16384,1.8618181818181818
223,277,16384,2.359447004608295
224,278,16384,2.3486238532110093
225,279,16384,2.3378995433789953
226,280,16384,2.3703703703703702
227,281,16384,2.392523364485981
228,282,16384,1.9997558891736849
229,283,16384,2.316742081447964
230,284,16384,2.3813953488372093
231,285,16384,2.381049266095044
232,286,16384,2.3375659865886718
233,287,16384,2.3486238532110093
234,288,16384,2.370027484449588
235,289,16384,2.3703703703703702
236,290,16384,2.359447004608295
237,291,16384,2.3489605734767025
238,292,16384,2.359447004608295
239,293,16384,2.370027484449588
240,294,16384,2.169491525423729
241,295,16384,2.295964125560538
242,296,16384,2.3703703703703702
243,297,16384,2.359447004608295
244,298,16384,2.3486238532110093
245,299,16384,2.3486238532110093
246,300,16384,2.3813953488372093
247,301,16384,2.359447004608295
248,302,16384,2.098360655737705
249,303,16384,2.3703703703703702
250,304,16384,2.370027484449588
251,305,16384,2.359447004608295
252,306,16384,2.3378995433789953
253,307,16384,2.1247568408766697
254,308,16384,2.3378995433789953
255,309,16384,1.9176029962546817
256,310,16384,2.359447004608295
257,311,16384,2.3382331953760525
258,312,16384,2.3591072714182864
259,313,16384,2.3486238532110093
260,314,16384,2.3703703703703702
261,315,16384,2.3486238532110093
262,316,16384,1.8618181818181818
263,317,16384,2.3378995433789953
264,320,16384,2.3813953488372093
265,321,16384,2.359447004608295
266,322,16384,2.370713355520185
267,323,16384,2.316742081447964
268,324,16384,2.392523364485981
269,325,16384,2.3813953488372093
270,326,16384,2.3703703703703702
271,327,16384,2.348287229468253
272,328,16384,2.3813953488372093
273,329,16384,2.0728744939271255
274,330,16384,2.178723404255319
275,331,16384,2.3703703703703702
276,332,16384,2.12448132780083
277,333,16384,2.359447004608295
278,334,16384,2.39217404000584
279,335,16384,2.3063063063063063
280,336,16384,2.3813953488372093
281,337,16384,2.381049266095044
282,338,16384,2.3813953488372093
283,339,16384,2.370027484449588
284,340,16384,2.381049266095044
285,341,16384,2.392523364485981
286,342,16384,2.3813953488372093
287,343,16384,2.295964125560538
288,344,16384,2.3813953488372093
289,345,16384,2.39217404000584
290,346,16384,2.3813953488372093
291,347,16384,2.359447004608295
292,348,16384,2.392872791003359
293,349,16384,2.3813953488372093
294,350,16384,2.295964125560538
295,351,16384,1.848375451263538
296,352,16384,2.3375659865886718
297,353,16384,2.3813953488372093
298,354,16384,2.3813953488372093
299,355,16384,2.3703703703703702
300,356,16384,2.3703703703703702
301,357,16384,2.3813953488372093
302,358,16384,2.3813953488372093
303,359,16384,2.3486238532110093
304,360,16384,2.3378995433789953
305,361,16384,1.656957928802589
306,362,16384,2.392523364485981
307,363,16384,2.3164145341439277
308,366,16384,1.896076842957991
309,368,16384,2.381049266095044
310,369,16384,2.3813953488372093
311,370,16384,2.3813953488372093
312,371,16384,2.359447004608295
313,372,16384,2.316742081447964
314,373,16384,2.359447004608295
315,374,16384,2.3813953488372093
316,375,16384,2.3378995433789953
317,376,16384,2.403755868544601
318,377,16384,2.3378995433789953
319,378,16384,1.848375451263538
320,379,16384,2.359447004608295
321,380,16384,2.370027484449588
322,381,16384,2.3703703703703702
323,384,16384,2.359447004608295
324,385,16384,2.3703703703703702
325,386,16384,2.2651735103000137
326,387,16384,2.327272727272727
327,388,16384,2.3703703703703702
328,389,16384,2.3813953488372093
329,390,16384,1.848375451263538
330,391,16384,2.2164502164502164
331,392,16384,2.359447004608295
332,393,16384,2.3164145341439277
333,394,16384,2.359447004608295
334,395,16384,2.3378995433789953
335,396,16384,2.3486238532110093
336,397,16384,2.3486238532110093
337,398,16384,2.3813953488372093
338,399,16384,1.946768060836502
339,400,16384,2.3813953488372093
340,401,16384,2.359447004608295
341,402,16384,2.3703703703703702
342,403,16384,2.3486238532110093
343,404,16384,2.359447004608295
344,405,16384,2.359447004608295
345,406,16384,1.7714347497026706
346,407,16384,2.3378995433789953
347,408,16384,2.370027484449588
348,409,16384,1.8091872791519434
349,410,16384,2.3703703703703702
350,411,16384,2.2857142857142856
351,412,16384,2.359447004608295
352,413,16384,2.370027484449588
353,414,16384,2.3703703703703702
354,415,16384,2.2755555555555556
355,416,16384,2.3813953488372093
356,417,16384,2.3703703703703702
357,418,16384,2.3378995433789953
358,419,16384,2.348287229468253
359,420,16384,2.3703703703703702
360,421,16384,2.3703703703703702
361,422,16384,2.3486238532110093
362,423,16384,2.295964125560538
363,424,16384,2.2857142857142856
364,425,16384,2.178723404255319
365,426,16384,2.3703703703703702
366,427,16384,2.3378995433789953
367,428,16384,2.0728744939271255
368,429,16384,1.903345724907063
369,430,16384,2.3703703703703702
370,431,16384,2.3378995433789953
371,432,16384,2.3703703703703702
372,433,16384,2.370027484449588
373,434,16384,2.3378995433789953
374,435,16384,2.359447004608295
375,436,16384,2.359447004608295
376,437,16384,2.3703703703703702
377,438,16384,2.392523364485981
378,439,16384,2.327272727272727
379,440,16384,2.3813953488372093
380,441,16384,2.392523364485981
381,442,16384,2.3813953488372093
382,443,16384,2.2857142857142856
383,444,16384,2.370027484449588
384,445,16384,2.359447004608295
385,448,16384,2.3813953488372093
386,449,16384,2.3813953488372093
387,450,16384,2.392523364485981
388,451,16384,2.359447004608295
389,452,16384,2.3063063063063063
390,453,16384,2.2755555555555556
391,454,16384,2.169491525423729
392,455,16384,2.12448132780083
393,456,16384,2.3813953488372093
394,457,16384,2.12448132780083
395,458,16384,2.3813953488372093
396,459,16384,2.3813953488372093
397,460,16384,2.3813953488372093
398,461,16384,2.3486238532110093
399,462,16384,2.381049266095044
400,463,16384,2.3486238532110093
401,464,16384,2.3378995433789953
402,465,16384,2.392523364485981
403,466,16384,2.3813953488372093
404,467,16384,2.327272727272727
405,468,16384,2.3703703703703702
406,469,16384,2.370027484449588
407,470,16384,2.3813953488372093
408,471,16384,2.3813953488372093
409,472,16384,2.2857142857142856
410,473,16384,2.359447004608295
411,474,16384,2.3703703703703702
412,475,16384,1.9768339768339769
413,476,16384,1.889081056151274
414,477,16384,2.3813953488372093
415,478,16384,2.1242058861662128
416,479,16384,1.9391643981536277
417,480,16384,2.2651735103000137
418,481,16384,1.9393939393939394
419,482,16384,1.3580901856763925
420,483,16384,2.3591072714182864
421,484,16384,1.889081056151274
422,485,16384,2.1512605042016806
423,486,16384,2.0728744939271255
424,487,16384,2.1069958847736627
425,488,16384,1.9692307692307693
426,489,16384,2.316742081447964
427,490,16384,1.514792899408284
428,491,16384,2.359447004608295
429,492,16384,1.426183844011142
430,493,16384,1.9765954879961394
431,494,16384,1.5466817709808365
432,495,16384,2.359447004608295
433,496,16384,1.6463022508038585
434,497,16384,1.9541984732824427
435,498,16384,1.6895947200165
436,499,16384,1.8415196133528156
437,500,16384,1.4463276836158192
438,501,16384,2.169491525423729
439,502,16384,2.015748031496063
440,503,16384,2.015748031496063
441,504,16384,2.0237154150197627
442,505,16384,2.3813953488372093
443,506,16384,1.6516129032258065
444,507,16384,2.3703703703703702
445,508,16384,1.8091872791519434
446,509,16384,2.3703703703703702
447,512,16384,1.8285714285714285
448,513,16384,1.9844961240310077
449,514,16384,1.5515151515151515
450,515,16384,1.7655172413793103
451,516,16384,1.4421265733650206
452,517,16384,1.946768060836502
453,518,16384,1.7009966777408638
454,519,16384,1.7179406521967076
455,520,16384,1.528358208955224
456,521,16384,2.3703703703703702
457,522,16384,1.322997416020672
458,523,16384,2.3063063063063063
459,524,16384,2.089795918367347
460,525,16384,2.359447004608295
461,526,16384,1.8618181818181818
462,527,16384,2.098360655737705
463,528,16384,1.625235591707172
464,529,16384,1.7777777777777777
465,530,16384,1.6463022508038585
466,531,16384,2.0728744939271255
467,532,16384,1.4883720930232558
468,533,16384,2.1242058861662128
469,534,16384,1.3298701298701299
470,535,16384,2
471,536,16384,1.7964912280701755
472,537,16384,2.1880341880341883
473,538,16384,2.1512605042016806
474,539,16384,2.3378995433789953
475,540,16384,1.6
476,541,16384,2.3813953488372093
477,542,16384,1.8754578754578755
478,543,16384,1.9248120300751879
479,544,16384,2.1422594142259412
480,545,16384,2.089795918367347
481,546,16384,1.2831075260396272
482,547,16384,1.9539654144305307
483,548,16384,1.4669173605515264
484,549,16384,2.1422594142259412
485,550,16384,1.8754578754578755
486,551,16384,2.048
487,552,16384,1.8089875234625152
488,554,16384,2.370027484449588
489,555,16384,2.3375659865886718
490,556,16384,1.6
491,557,16384,2.3813953488372093
492,558,16384,1.9768339768339769
493,559,16384,1.78397212543554
494,560,16384,2.0813008130081303
495,561,16384,2.0813008130081303
496,562,16384,1.6625063419583967
497,563,16384,2.327272727272727
498,564,16384,1.6463022508038585
499,565,16384,1.9997558891736849
500,566,16384,1.514792899408284
501,567,16384,1.9844961240310077
502,568,16384,1.7476266666666667
503,569,16384,2.1880341880341883
504,570,16384,1.5704016102750886
505,571,16384,2.327272727272727
506,572,16384,1.3726541554959786
507,573,16384,2.3813953488372093
508,576,16384,1.3027989821882953
509,577,16384,1.9320754716981132
510,578,16384,1.3128205128205128
511,579,16384,2.1422594142259412
512,580,16384,1.4504249291784703
513,581,16384,2.392523364485981
514,582,16384,1.6357827476038338
515,583,16384,2.370027484449588
516,584,16384,1.8351254480286738
517,585,16384,1.9844961240310077
518,586,16384,2.064516129032258
519,587,16384,2.2164502164502164
520,588,16384,1.501328690552552
521,589,16384,1.9616858237547892
522,590,16384,1.5849859727193576
523,591,16384,2.305981703026038
524,592,16384,1.7902097902097902
525,593,16384,2.3703703703703702
526,594,16384,1.7239057239057238
527,595,16384,2.3486238532110093
528,596,16384,1.4711322618299363
529,597,16384,2.381049266095044
530,598,16384,1.678688524590164
531,599,16384,2.327272727272727
532,600,16384,1.4220987761479038
533,601,16384,2.098360655737705
534,602,16384,2.160337552742616
535,603,16384,2.359447004608295
536,604,16384,1.6464676916892775
537,605,16384,1.8962962962962964
538,606,16384,2.1509780753577523
539,607,16384,2.2555066079295156
540,608,16384,2.316742081447964
541,609,16384,1.9320754716981132
542,610,16384,1.7777777777777777
543,611,16384,2.169491525423729
544,612,16384,1.8752432184960512
545,613,16384,2.226086956521739
546,616,16384,2.115702479338843
547,617,16384,1.9922178988326849
548,618,16384,1.4301675977653632
549,619,16384,2.295964125560538
550,620,16384,1.8618181818181818
551,621,16384,1.7594501718213058
552,622,16384,1.7066666666666668
553,623,16384,2.370027484449588
554,624,16384,1.5058823529411764
555,625,16384,1.9320754716981132
556,626,16384,1.528358208955224
557,627,16384,1.585139318885449
558,628,16384,1.701173294569619
559,629,16384,2.206896551724138
560,630,16384,1.6
561,631,16384,2.064516129032258
562,632,16384,2.3813953488372093
563,633,16384,1.8823529411764706
564,634,16384,1.6842105263157894
565,635,16384,1.735593220338983
566,636,16384,1.4670487106017192
567,637,16384,2.0477440319960003
568,640,16384,1.5192878338278932
569,641,16384,1.848375451263538
570,642,16384,1.4545454545454546
571,643,16384,2.2555066079295156
572,644,16384,2.0237154150197627
573,645,16384,2.245614035087719
574,646,16384,1.7009966777408638
575,647,16384,2.1880341880341883
576,648,16384,1.4463276836158192
577,649,16384,2.226086956521739
578,650,16384,1.4301675977653632
579,651,16384,2.295964125560538
580,652,16384,2.048
581,653,16384,2.064516129032258
582,654,16384,1.7123745819397993
583,655,16384,1.841726618705036
584,656,16384,1.532934131736527
585,657,16384,2.370027484449588
586,658,16384,1.204705882352941
587,659,16384,2.245614035087719
588,660,16384,1.4301675977653632
589,661,16384,2.316742081447964
590,662,16384,1.3950953678474114
591,663,16384,1.8618181818181818
592,664,16384,1.7964912280701755
593,665,16384,2.359447004608295
594,666,16384,2.098360655737705
595,667,16384,1.3800539083557952
596,668,16384,2.169491525423729
597,669,16384,2.359447004608295
598,670,16384,1.4669173605515264
599,671,16384,2.3486238532110093
600,672,16384,2.1242058861662128
601,673,16384,2.133055591719828
