idx,og Index,data (B),bandwidth (GB/s)
0,2,57344,5.480646086208544
1,3,57344,5.447325923814952
2,4,57344,5.413897280966768
3,5,57344,5.381886438291882
4,6,57344,5.464455879550219
5,7,57344,5.463935207241543
6,8,57344,5.398098465593524
7,9,57344,5.447325923814952
8,10,57344,5.447325923814952
9,11,57344,5.480646086208544
10,12,57344,5.430817312245478
11,13,57344,5.463935207241543
12,14,57344,5.398098465593524
13,15,57344,5.480646086208544
14,16,57344,5.430817312245478
15,17,57344,5.446808510638298
16,20,57344,5.513846153846154
17,21,57344,5.463414634146342
18,22,57344,5.398098465593524
19,23,57344,5.398098465593524
20,25,57344,5.4144084600132185
21,26,57344,5.446808510638298
22,27,57344,5.430303030303031
23,28,57344,5.398098465593524
24,29,57344,5.447843435303059
25,30,57344,5.480646086208544
26,31,57344,5.480646086208544
27,32,57344,5.464455879550219
28,33,57344,5.430817312245478
29,34,57344,5.414919735599622
30,35,57344,5.447325923814952
31,36,57344,5.4144084600132185
32,37,57344,5.430817312245478
33,38,57344,5.365771498081782
34,39,57344,5.430817312245478
35,40,57344,5.365771498081782
36,41,57344,5.447843435303059
37,42,57344,5.430817312245478
38,43,57344,5.398098465593524
39,44,57344,5.365771498081782
40,45,57344,5.302265372168285
41,46,57344,5.4144084600132185
42,47,57344,5.430817312245478
43,48,57344,4.082295151989749
44,49,57344,5.447325923814952
45,50,57344,5.447325923814952
46,51,57344,5.430817312245478
47,52,57344,5.4144084600132185
48,53,57344,5.398098465593524
49,54,57344,5.349752775445471
50,55,57344,5.4144084600132185
51,56,57344,5.397590361445783
52,57,57344,5.447325923814952
53,58,57344,5.31800055643142
54,59,57344,5.430817312245478
55,60,57344,5.382391590013141
56,61,57344,5.463935207241543
57,62,57344,5.430817312245478
58,63,57344,5.430817312245478
59,64,57344,5.349752775445471
60,65,57344,5.431331691608259
61,66,57344,5.430817312245478
62,67,57344,5.4144084600132185
63,68,57344,5.4144084600132185
64,69,57344,5.447325923814952
65,70,57344,5.463935207241543
66,71,57344,5.447325923814952
67,72,57344,5.381886438291882
68,73,57344,5.447325923814952
69,74,57344,5.365269461077844
70,75,57344,5.398098465593524
71,76,57344,5.4144084600132185
72,77,57344,5.381381381381382
73,78,57344,5.430817312245478
74,79,57344,5.446808510638298
75,80,57344,5.381886438291882
76,81,57344,5.431331691608259
77,84,57344,5.430817312245478
78,85,57344,5.398098465593524
79,86,57344,5.463935207241543
80,87,57344,4.951131065446383
81,88,57344,5.430817312245478
82,89,57344,5.49745949573387
83,90,57344,5.463935207241543
84,91,57344,5.480646086208544
85,92,57344,5.398098465593524
86,93,57344,5.49745949573387
87,94,57344,5.447325923814952
88,95,57344,5.480646086208544
89,96,57344,5.430817312245478
90,97,57344,5.430817312245478
91,98,57344,5.382391590013141
92,99,57344,5.480122324159021
93,100,57344,5.39860666541141
94,101,57344,5.48116994838463
95,102,57344,5.349253731343284
96,103,57344,5.1351302946180715
97,104,57344,5.2866230294090535
98,105,57344,5.480646086208544
99,106,57344,5.463935207241543
100,107,57344,5.463414634146342
101,108,57344,5.4144084600132185
102,109,57344,5.480646086208544
103,110,57344,5.463935207241543
104,111,57344,5.49745949573387
105,112,57344,5.463414634146342
106,113,57344,5.480646086208544
107,114,57344,5.430817312245478
108,115,57344,5.463935207241543
109,116,57344,5.398098465593524
110,117,57344,5.514376382344456
111,118,57344,5.4144084600132185
112,119,57344,5.447325923814952
113,120,57344,5.398098465593524
114,121,57344,5.480646086208544
115,122,57344,5.48116994838463
116,123,57344,5.463935207241543
117,124,57344,5.447325923814952
118,125,57344,5.480646086208544
119,126,57344,5.447325923814952
120,127,57344,5.497986577181208
121,128,57344,5.430817312245478
122,129,57344,5.463935207241543
123,130,57344,5.49745949573387
124,131,57344,5.463935207241543
125,132,57344,5.447325923814952
126,133,57344,5.480122324159021
127,134,57344,5.463935207241543
128,135,57344,5.480646086208544
129,136,57344,5.4144084600132185
130,137,57344,5.480646086208544
131,138,57344,5.464455879550219
132,139,57344,5.381381381381382
133,140,57344,5.463935207241543
134,141,57344,5.49745949573387
135,142,57344,5.349752775445471
136,143,57344,5.430817312245478
137,144,57344,5.430817312245478
138,145,57344,5.480646086208544
139,148,57344,5.398098465593524
140,149,57344,5.447325923814952
141,150,57344,5.381886438291882
142,151,57344,5.398098465593524
143,152,57344,5.381886438291882
144,153,57344,5.349752775445471
145,154,57344,5.430817312245478
146,155,57344,5.398098465593524
147,156,57344,5.430817312245478
148,157,57344,5.463935207241543
149,158,57344,5.447325923814952
150,159,57344,5.4144084600132185
151,160,57344,5.333829411217561
152,161,57344,5.430817312245478
153,162,57344,5.463935207241543
154,163,57344,5.431331691608259
155,164,57344,5.365269461077844
156,165,57344,5.447325923814952
157,166,57344,5.430817312245478
158,167,57344,5.349752775445471
159,168,57344,5.333333333333333
160,169,57344,5.381886438291882
161,170,57344,5.366273629047352
162,171,57344,5.333333333333333
163,172,57344,4.87039239001189
164,173,57344,5.4144084600132185
165,174,57344,5.446808510638298
166,175,57344,5.430817312245478
167,176,57344,5.398098465593524
168,177,57344,5.431331691608259
169,178,57344,5.349752775445471
170,179,57344,5.447843435303059
171,180,57344,5.4144084600132185
172,181,57344,5.365771498081782
173,182,57344,5.430817312245478
174,183,57344,5.430817312245478
175,184,57344,5.414919735599622
176,185,57344,5.430817312245478
177,186,57344,5.349752775445471
178,187,57344,5.430817312245478
179,188,57344,5.381381381381382
180,189,57344,5.463935207241543
181,190,57344,5.4144084600132185
182,191,57344,5.39860666541141
183,192,57344,5.398098465593524
184,193,57344,5.463935207241543
185,194,57344,5.48116994838463
186,195,57344,5.381381381381382
187,196,57344,5.397590361445783
188,197,57344,5.381886438291882
189,198,57344,5.447325923814952
190,199,57344,5.430817312245478
191,200,57344,5.430817312245478
192,201,57344,5.480122324159021
193,202,57344,5.349752775445471
194,203,57344,5.431331691608259
195,204,57344,5.381886438291882
196,205,57344,5.430817312245478
197,206,57344,5.430303030303031
198,207,57344,5.447325923814952
199,208,57344,5.414919735599622
200,209,57344,5.286135693215339
201,212,57344,5.414919735599622
202,213,57344,5.430817312245478
203,214,57344,5.463935207241543
204,215,57344,5.430817312245478
205,216,57344,5.271557271557271
206,217,57344,5.480646086208544
207,218,57344,5.447325923814952
208,219,57344,5.480646086208544
209,220,57344,5.463935207241543
210,221,57344,5.463935207241543
211,222,57344,5.430817312245478
212,223,57344,5.447325923814952
213,224,57344,5.430303030303031
214,225,57344,5.463935207241543
215,226,57344,5.447325923814952
216,227,57344,5.463935207241543
217,228,57344,5.430817312245478
218,229,57344,5.49745949573387
219,230,57344,5.463935207241543
220,231,57344,5.463935207241543
221,232,57344,5.463414634146342
222,233,57344,5.398098465593524
223,234,57344,5.463935207241543
224,235,57344,5.463935207241543
225,236,57344,5.4144084600132185
226,237,57344,5.480122324159021
227,238,57344,5.446808510638298
228,239,57344,5.463935207241543
229,240,57344,5.480646086208544
230,241,57344,5.463935207241543
231,242,57344,5.430817312245478
232,243,57344,5.463935207241543
233,244,57344,5.271072708888685
234,245,57344,5.480646086208544
235,246,57344,5.447325923814952
236,247,57344,5.463414634146342
237,248,57344,5.431331691608259
238,249,57344,5.463935207241543
239,250,57344,5.398098465593524
240,251,57344,5.480646086208544
241,252,57344,5.430817312245478
242,253,57344,5.447325923814952
243,254,57344,5.480646086208544
244,255,57344,5.463935207241543
245,256,57344,5.413897280966768
246,257,57344,5.414919735599622
247,258,57344,5.447325923814952
248,259,57344,5.463414634146342
249,260,57344,5.430303030303031
250,261,57344,5.414919735599622
251,262,57344,5.447325923814952
252,263,57344,5.480646086208544
253,264,57344,5.398098465593524
254,265,57344,5.463935207241543
255,266,57344,5.463935207241543
256,267,57344,5.4969325153374236
257,268,57344,5.447325923814952
258,269,57344,5.463935207241543
259,270,57344,5.480122324159021
260,271,57344,5.480646086208544
261,272,57344,5.430817312245478
262,273,57344,5.463935207241543
263,276,57344,5.39860666541141
264,277,57344,5.447325923814952
265,278,57344,5.398098465593524
266,279,57344,5.4144084600132185
267,280,57344,5.398098465593524
268,281,57344,5.430817312245478
269,282,57344,5.463935207241543
270,283,57344,5.430817312245478
271,284,57344,5.430303030303031
272,285,57344,5.430817312245478
273,286,57344,5.4144084600132185
274,287,57344,5.430817312245478
275,288,57344,5.381381381381382
276,289,57344,5.430817312245478
277,290,57344,5.381886438291882
278,291,57344,5.430817312245478
279,292,57344,5.398098465593524
280,293,57344,5.333829411217561
281,294,57344,5.4144084600132185
282,295,57344,5.463935207241543
283,296,57344,3.0376099163046932
284,297,57344,5.463935207241543
285,298,57344,5.4144084600132185
286,299,57344,5.430817312245478
287,300,57344,5.447325923814952
288,301,57344,5.430817312245478
289,302,57344,5.4144084600132185
290,303,57344,5.430817312245478
291,304,57344,5.398098465593524
292,305,57344,5.413897280966768
293,306,57344,5.447325923814952
294,307,57344,5.398098465593524
295,308,57344,5.4144084600132185
296,309,57344,5.430817312245478
297,310,57344,5.446808510638298
298,311,57344,5.447325923814952
299,312,57344,5.4144084600132185
300,313,57344,5.447325923814952
301,314,57344,5.4144084600132185
302,315,57344,5.430303030303031
303,316,57344,5.39860666541141
304,317,57344,5.430817312245478
305,318,57344,5.480646086208544
306,319,57344,5.381886438291882
307,320,57344,5.382391590013141
308,321,57344,5.4144084600132185
309,322,57344,5.4144084600132185
310,323,57344,5.398098465593524
311,324,57344,5.430817312245478
312,325,57344,5.398098465593524
313,326,57344,5.430817312245478
314,327,57344,5.398098465593524
315,328,57344,5.430303030303031
316,329,57344,5.414919735599622
317,330,57344,5.349752775445471
318,331,57344,5.430817312245478
319,332,57344,5.4144084600132185
320,333,57344,5.4144084600132185
321,334,57344,5.446808510638298
322,335,57344,5.398098465593524
323,336,57344,5.381886438291882
324,337,57344,5.463935207241543
325,340,57344,5.447325923814952
326,341,57344,5.430817312245478
327,342,57344,5.480646086208544
328,343,57344,5.463935207241543
329,344,57344,5.463935207241543
330,345,57344,5.49745949573387
331,346,57344,5.480646086208544
332,347,57344,5.447325923814952
333,348,57344,5.398098465593524
334,349,57344,5.381886438291882
335,350,57344,5.365771498081782
336,351,57344,5.480646086208544
337,352,57344,5.446808510638298
338,353,57344,5.497986577181208
339,354,57344,5.463414634146342
340,355,57344,5.464455879550219
341,356,57344,5.463935207241543
342,357,57344,5.446808510638298
343,358,57344,5.480646086208544
344,359,57344,5.480646086208544
345,360,57344,5.398098465593524
346,361,57344,5.49745949573387
347,362,57344,5.381886438291882
348,363,57344,5.463414634146342
349,364,57344,5.2866230294090535
350,365,57344,5.49745949573387
351,366,57344,5.480122324159021
352,367,57344,5.480646086208544
353,368,57344,5.447325923814952
354,369,57344,5.463935207241543
355,370,57344,5.49745949573387
356,371,57344,5.49745949573387
357,372,57344,5.4144084600132185
358,373,57344,5.430817312245478
359,374,57344,5.480646086208544
360,375,57344,5.430817312245478
361,376,57344,5.447325923814952
362,377,57344,5.381886438291882
363,378,57344,5.480646086208544
364,379,57344,5.447843435303059
365,380,57344,5.430817312245478
366,381,57344,5.49745949573387
367,382,57344,5.480646086208544
368,383,57344,5.463935207241543
369,384,57344,5.447325923814952
370,385,57344,5.480122324159021
371,386,57344,5.480646086208544
372,387,57344,5.464455879550219
373,388,57344,5.430817312245478
374,389,57344,5.49745949573387
375,390,57344,5.480646086208544
376,391,57344,5.480122324159021
377,392,57344,5.397590361445783
378,393,57344,5.463414634146342
379,394,57344,5.398098465593524
380,395,57344,5.49745949573387
381,396,57344,5.463935207241543
382,397,57344,5.463935207241543
383,398,57344,5.480646086208544
384,399,57344,5.447325923814952
385,400,57344,5.447325923814952
386,401,57344,5.398098465593524
387,404,57344,5.349752775445471
388,405,57344,5.447325923814952
389,406,57344,5.463935207241543
390,407,57344,5.4144084600132185
391,408,57344,5.447325923814952
392,409,57344,5.430817312245478
393,410,57344,5.447325923814952
394,411,57344,5.447843435303059
395,412,57344,5.076936697653829
396,413,57344,5.413897280966768
397,414,57344,5.413897280966768
398,415,57344,5.333829411217561
399,416,57344,5.4144084600132185
400,417,57344,5.430817312245478
401,418,57344,5.4144084600132185
402,419,57344,4.728622082955389
403,420,57344,5.381886438291882
404,421,57344,5.413897280966768
405,422,57344,5.397590361445783
406,423,57344,5.430817312245478
407,424,57344,5.398098465593524
408,425,57344,5.430817312245478
409,426,57344,4.728622082955389
410,427,57344,5.398098465593524
411,428,57344,5.381886438291882
412,429,57344,5.430817312245478
413,430,57344,5.447325923814952
414,431,57344,5.349253731343284
415,432,57344,5.365771498081782
416,433,57344,5.413897280966768
417,434,57344,5.381886438291882
418,435,57344,5.430817312245478
419,436,57344,5.287110455467453
420,437,57344,5.365771498081782
421,438,57344,5.413897280966768
422,439,57344,5.4144084600132185
423,440,57344,5.349752775445471
424,441,57344,5.430817312245478
425,442,57344,5.447325923814952
426,443,57344,5.447325923814952
427,444,57344,5.447325923814952
428,445,57344,5.333829411217561
429,446,57344,5.365771498081782
430,447,57344,5.381886438291882
431,448,57344,5.381886438291882
432,449,57344,5.430817312245478
433,450,57344,5.398098465593524
434,451,57344,5.398098465593524
435,452,57344,5.398098465593524
436,453,57344,5.4144084600132185
437,454,57344,5.4144084600132185
438,455,57344,5.447325923814952
439,456,57344,5.398098465593524
440,457,57344,5.39860666541141
441,458,57344,5.447325923814952
442,459,57344,5.430817312245478
443,460,57344,5.447325923814952
444,461,57344,5.430817312245478
445,462,57344,5.463935207241543
446,463,57344,5.430817312245478
447,464,57344,5.381886438291882
448,465,57344,5.4144084600132185
449,468,57344,5.430817312245478
450,469,57344,5.381886438291882
451,470,57344,5.464455879550219
452,471,57344,5.463935207241543
453,472,57344,5.414919735599622
454,473,57344,5.463414634146342
455,474,57344,5.480646086208544
456,475,57344,5.480646086208544
457,476,57344,5.447325923814952
458,477,57344,5.365771498081782
459,478,57344,5.480646086208544
460,479,57344,5.49745949573387
461,480,57344,5.430817312245478
462,481,57344,5.480646086208544
463,482,57344,5.365771498081782
464,483,57344,5.447325923814952
465,484,57344,5.447325923814952
466,485,57344,5.447843435303059
467,486,57344,5.463414634146342
468,487,57344,5.463935207241543
469,488,57344,5.381886438291882
470,489,57344,5.480646086208544
471,490,57344,5.463935207241543
472,491,57344,5.463414634146342
473,492,57344,5.480646086208544
474,493,57344,5.480646086208544
475,494,57344,5.480646086208544
476,495,57344,5.480646086208544
477,496,57344,5.31800055643142
478,497,57344,5.49745949573387
479,498,57344,5.447325923814952
480,499,57344,5.49745949573387
481,500,57344,5.365771498081782
482,501,57344,5.463935207241543
483,502,57344,5.463414634146342
484,503,57344,5.4969325153374236
485,504,57344,5.430817312245478
486,505,57344,5.480646086208544
487,506,57344,5.463935207241543
488,507,57344,5.463935207241543
489,508,57344,5.447325923814952
490,509,57344,4.425032795740412
491,510,57344,5.480646086208544
492,511,57344,5.463935207241543
493,512,57344,5.447325923814952
494,513,57344,5.49745949573387
495,514,57344,5.49745949573387
496,515,57344,5.480646086208544
497,516,57344,5.4144084600132185
498,517,57344,5.365771498081782
499,518,57344,5.447325923814952
500,519,57344,5.463935207241543
501,520,57344,5.430817312245478
502,521,57344,5.463414634146342
503,522,57344,5.480646086208544
504,523,57344,5.447325923814952
505,524,57344,5.414919735599622
506,525,57344,5.463935207241543
507,526,57344,5.447325923814952
508,527,57344,5.464455879550219
509,528,57344,5.447325923814952
510,529,57344,5.463935207241543
