idx,og Index,data (B),bandwidth (GB/s)
0,0,98304,12.140792886254168
1,2,98304,13.356521739130434
2,4,98304,13.471837741537618
3,5,98304,12.19047619047619
4,6,98304,13.414847161572052
5,8,98304,12.962025316455696
6,10,98304,13.473684210526315
7,11,98304,13.961653174265019
8,12,98304,13.182781279334852
9,14,98304,13.41301678264429
10,15,98304,13.773854560739807
11,16,98304,12.641975308641975
12,20,98304,13.41301678264429
13,22,98304,13.471837741537618
14,24,98304,13.531176875430145
15,25,98304,13.015225738117305
16,26,98304,13.126452129790358
17,28,98304,13.961653174265019
18,30,98304,13.182781279334852
19,31,98304,12.960316413974951
20,32,98304,12.907563025210084
21,34,98304,12.19047619047619
22,36,98304,13.182781279334852
23,38,98304,12.905868452146514
24,40,98304,14.286295596570266
25,42,98304,12.851876062230357
26,44,98304,13.23959595959596
27,46,98304,12.960316413974951
28,48,98304,13.015225738117305
29,50,98304,12.851876062230357
30,51,98304,13.653333333333334
31,52,98304,11.54751556443087
32,54,98304,12.64034974926064
33,56,98304,13.533039647577093
34,57,98304,13.898487204863565
35,58,98304,13.5929203539823
36,60,98304,14.154643628509719
37,62,98304,12.538775510204081
38,63,98304,13.128205128205128
39,64,98304,13.835890218156228
40,66,98304,12.960316413974951
41,68,98304,13.2987012987013
42,70,98304,13.5929203539823
43,72,98304,13.533039647577093
44,74,98304,13.126452129790358
45,75,98304,13.714285714285714
46,76,98304,11.906976744186046
47,78,98304,13.126452129790358
48,79,98304,13.712372715859953
49,80,98304,12.905868452146514
50,81,98304,13.900452488687783
51,84,98304,13.23959595959596
52,85,98304,13.41301678264429
53,86,98304,12.798333550318969
54,88,98304,12.641975308641975
55,89,98304,13.651437300374948
56,90,98304,12.745235316997277
57,91,98304,12.798333550318969
58,92,98304,13.296902475314488
59,93,98304,14.027397260273972
60,94,98304,12.960316413974951
61,96,98304,13.356521739130434
62,97,98304,14.089723376809516
63,98,98304,13.471837741537618
64,99,98304,13.531176875430145
65,100,98304,12.745235316997277
66,101,98304,13.533039647577093
67,102,98304,13.296902475314488
68,103,98304,12.537176380563704
69,104,98304,12.093000369049083
70,105,98304,12.437246963562753
71,106,98304,13.182781279334852
72,107,98304,12.437246963562753
73,108,98304,12.905868452146514
74,109,98304,13.471837741537618
75,110,98304,12.8
76,111,98304,13.531176875430145
77,112,98304,13.533039647577093
78,114,98304,12.694214876033058
79,116,98304,13.296902475314488
80,118,98304,13.471837741537618
81,120,98304,13.296902475314488
82,121,98304,13.2987012987013
83,122,98304,13.356521739130434
84,124,98304,13.015225738117305
85,126,98304,12.588551671148675
86,127,98304,13.531176875430145
87,128,98304,13.296902475314488
88,130,98304,12.188964662120274
89,131,98304,12.588551671148675
90,132,98304,12.486218722215165
91,134,98304,13.182781279334852
92,136,98304,13.128205128205128
93,138,98304,12.905868452146514
94,139,98304,12.798333550318969
95,140,98304,11.951854103343464
96,141,98304,13.41301678264429
97,142,98304,13.712372715859953
98,144,98304,13.182781279334852
99,148,98304,14.154643628509719
100,150,98304,12.905868452146514
101,151,98304,12.537176380563704
102,152,98304,13.651437300374948
103,153,98304,14.420419539386828
104,154,98304,12.960316413974951
105,155,98304,13.77578475336323
106,156,98304,13.354707240864013
107,157,98304,12.588551671148675
108,158,98304,13.414847161572052
109,160,98304,13.898487204863565
110,161,98304,13.41301678264429
111,162,98304,13.773854560739807
112,163,98304,13.473684210526315
113,164,98304,13.531176875430145
114,165,98304,12.64034974926064
115,166,98304,12.853556485355648
116,167,98304,13.23959595959596
117,168,98304,12.487804878048781
118,169,98304,13.963636363636363
119,170,98304,13.473684210526315
120,171,98304,13.77578475336323
121,172,98304,13.070602313522137
122,173,98304,12.692575855390574
123,174,98304,13.591041061800082
124,176,98304,12.745235316997277
125,178,98304,13.182781279334852
126,180,98304,13.651437300374948
127,182,98304,12.437246963562753
128,184,98304,13.184549356223176
129,185,98304,13.712372715859953
130,186,98304,12.387096774193548
131,188,98304,12.905868452146514
132,190,98304,12.851876062230357
133,191,98304,13.712372715859953
134,192,98304,13.835890218156228
135,194,98304,12.641975308641975
136,195,98304,13.128205128205128
137,196,98304,12.538775510204081
138,198,98304,12.960316413974951
139,200,98304,13.961653174265019
140,202,98304,13.531176875430145
141,204,98304,12.798333550318969
142,206,98304,13.531176875430145
143,207,98304,13.898487204863565
144,208,98304,12.59016393442623
145,212,98304,12.8
146,214,98304,12.745235316997277
147,215,98304,12.64034974926064
148,216,98304,13.072340425531914
149,217,98304,12.437246963562753
150,218,98304,13.070602313522137
151,219,98304,13.651437300374948
152,220,98304,12.853556485355648
153,221,98304,13.473684210526315
154,222,98304,13.126452129790358
155,224,98304,12.745235316997277
156,225,98304,12.694214876033058
157,226,98304,12.694214876033058
158,228,98304,13.898487204863565
159,229,98304,13.23959595959596
160,230,98304,13.471837741537618
161,231,98304,13.471837741537618
162,232,98304,13.471837741537618
163,233,98304,12.04558264918515
164,234,98304,13.41301678264429
165,236,98304,14.089723376809516
166,238,98304,12.486218722215165
167,240,98304,13.126452129790358
168,242,98304,13.354707240864013
169,243,98304,13.182781279334852
170,244,98304,12.487804878048781
171,246,98304,13.2987012987013
172,248,98304,12.641975308641975
173,250,98304,13.354707240864013
174,252,98304,13.356521739130434
175,253,98304,13.23959595959596
176,254,98304,13.23959595959596
177,256,98304,13.015225738117305
178,258,98304,13.354707240864013
179,259,98304,12.8
180,260,98304,13.296902475314488
181,261,98304,13.473684210526315
182,262,98304,12.335801229765341
183,263,98304,13.651437300374948
184,264,98304,13.184549356223176
185,266,98304,12.093000369049083
186,267,98304,13.471837741537618
187,268,98304,13.531176875430145
188,270,98304,13.414847161572052
189,272,98304,12.8
190,276,98304,13.128205128205128
191,278,98304,13.182781279334852
192,280,98304,13.471837741537618
193,281,98304,13.714285714285714
194,282,98304,13.531176875430145
195,283,98304,12.745235316997277
196,284,98304,13.414847161572052
197,285,98304,12.641975308641975
198,286,98304,13.533039647577093
199,288,98304,13.414847161572052
200,290,98304,13.773854560739807
201,291,98304,13.531176875430145
202,292,98304,13.354707240864013
203,293,98304,13.591041061800082
204,294,98304,13.2987012987013
205,295,98304,13.414847161572052
206,296,98304,13.531176875430145
207,297,98304,13.531176875430145
208,298,98304,13.591041061800082
209,299,98304,13.773854560739807
210,300,98304,13.23959595959596
211,302,98304,13.414847161572052
212,304,98304,12.694214876033058
213,305,98304,13.296902475314488
214,306,98304,12.692575855390574
215,308,98304,12.851876062230357
216,310,98304,12.851876062230357
217,312,98304,14.420419539386828
218,314,98304,12.851876062230357
219,316,98304,13.531176875430145
220,318,98304,13.653333333333334
221,319,98304,13.837837837837839
222,320,98304,13.128205128205128
223,321,98304,13.354707240864013
224,322,98304,13.070602313522137
225,323,98304,13.77578475336323
226,324,98304,12.486218722215165
227,326,98304,12.851876062230357
228,327,98304,12.745235316997277
229,328,98304,12.337349397590362
230,330,98304,12.435673624288425
231,331,98304,13.963636363636363
232,332,98304,14.089723376809516
233,334,98304,13.126452129790358
234,336,98304,13.356521739130434
235,337,98304,14.091743119266056
236,340,98304,14.422535211267606
237,342,98304,12.960316413974951
238,343,98304,13.296902475314488
239,344,98304,13.837837837837839
240,345,98304,13.473684210526315
241,346,98304,13.354707240864013
242,347,98304,13.23959595959596
243,348,98304,12.960316413974951
244,350,98304,12.335801229765341
245,351,98304,13.016949152542374
246,352,98304,12.960316413974951
247,353,98304,13.23959595959596
248,354,98304,12.745235316997277
249,355,98304,12.588551671148675
250,356,98304,13.296902475314488
251,357,98304,13.533039647577093
252,358,98304,13.241379310344827
253,359,98304,12.907563025210084
254,360,98304,13.354707240864013
255,361,98304,12.04558264918515
256,362,98304,13.41301678264429
257,363,98304,13.471837741537618
258,364,98304,12.745235316997277
259,365,98304,13.126452129790358
260,366,98304,12.239043824701195
261,367,98304,13.712372715859953
262,368,98304,13.835890218156228
263,370,98304,13.241379310344827
264,371,98304,12.694214876033058
265,372,98304,13.835890218156228
266,374,98304,12.537176380563704
267,376,98304,12.387096774193548
268,378,98304,13.414847161572052
269,380,98304,13.356521739130434
270,382,98304,13.296902475314488
271,384,98304,13.072340425531914
272,386,98304,13.128205128205128
273,388,98304,13.182781279334852
274,390,98304,12.385536096762001
275,392,98304,12.853556485355648
276,394,98304,13.354707240864013
277,396,98304,13.015225738117305
278,397,98304,13.41301678264429
279,398,98304,13.41301678264429
280,400,98304,13.182781279334852
281,401,98304,13.072340425531914
282,404,98304,14.089723376809516
283,405,98304,13.963636363636363
284,406,98304,12.798333550318969
285,407,98304,13.072340425531914
286,408,98304,13.714285714285714
287,409,98304,12.435673624288425
288,410,98304,12.59016393442623
289,411,98304,12.798333550318969
290,412,98304,13.471837741537618
291,413,98304,13.471837741537618
292,414,98304,13.653333333333334
293,416,98304,12.486218722215165
294,417,98304,12.385536096762001
295,418,98304,12.385536096762001
296,420,98304,13.471837741537618
297,421,98304,12.853556485355648
298,422,98304,12.798333550318969
299,423,98304,13.773854560739807
300,424,98304,13.471837741537618
301,425,98304,13.591041061800082
302,426,98304,13.591041061800082
303,428,98304,13.015225738117305
304,430,98304,12.188964662120274
305,432,98304,13.471837741537618
306,434,98304,13.5929203539823
307,436,98304,14.089723376809516
308,802,98304,12.694214876033058
309,803,98304,13.835890218156228
310,804,98304,12.798333550318969
311,805,98304,13.182781279334852
312,806,98304,12.588551671148675
313,808,98304,14.353044240035041
314,810,98304,12.694214876033058
315,811,98304,13.837837837837839
316,812,98304,13.296902475314488
317,814,98304,13.531176875430145
318,816,98304,13.414847161572052
319,818,98304,12.588551671148675
320,819,98304,12.435673624288425
321,820,98304,12.853556485355648
322,822,98304,12.798333550318969
323,824,98304,13.531176875430145
324,826,98304,12.140792886254168
325,828,98304,12.907563025210084
326,832,98304,13.41301678264429
327,833,98304,14.286295596570266
328,834,98304,13.296902475314488
329,835,98304,13.471837741537618
330,836,98304,12.851876062230357
331,837,98304,13.354707240864013
332,838,98304,12.798333550318969
333,839,98304,13.41301678264429
334,840,98304,12.798333550318969
335,841,98304,13.23959595959596
336,842,98304,12.962025316455696
337,844,98304,12.435673624288425
338,846,98304,12.798333550318969
339,847,98304,13.591041061800082
340,848,98304,13.015225738117305
341,850,98304,12.142292490118576
342,851,98304,12.641975308641975
343,852,98304,13.015225738117305
344,853,98304,11.95330739299611
345,854,98304,12.588551671148675
346,855,98304,13.591041061800082
347,856,98304,13.23959595959596
348,858,98304,13.182781279334852
349,860,98304,12.905868452146514
350,862,98304,12.437246963562753
351,863,98304,13.296902475314488
352,864,98304,13.070602313522137
353,866,98304,12.437246963562753
354,868,98304,13.126452129790358
355,870,98304,13.23959595959596
356,871,98304,13.23959595959596
357,872,98304,12.694214876033058
358,874,98304,12.435673624288425
359,875,98304,13.591041061800082
360,876,98304,12.8
361,878,98304,13.182781279334852
362,880,98304,13.712372715859953
363,882,98304,11.858142340168879
364,883,98304,13.126452129790358
365,884,98304,13.837837837837839
366,886,98304,12.798333550318969
367,887,98304,13.591041061800082
368,888,98304,12.8
369,890,98304,13.41301678264429
370,892,98304,12.487804878048781
