idx,og Index,data (B),bandwidth (GB/s)
0,0,106496,13.769847426945953
1,1,106496,13.120118270296908
2,2,106496,13.601021711366538
3,3,106496,14.678980013783598
4,4,106496,13.827057907037133
5,6,106496,13.172047000618429
6,8,106496,14.060734090308951
7,9,106496,14.744012183303337
8,10,106496,13.017479525730351
9,12,106496,14.120392468841157
10,14,106496,13.886556265484417
11,16,106496,14.180559254327564
12,17,106496,13.771628087417561
13,20,106496,14.058877887788778
14,22,106496,14.241240973522332
15,24,106496,12.96518139761383
16,26,106496,13.492461674901811
17,28,106496,14.060734090308951
18,30,106496,13.43628564219026
19,32,106496,12.966760014610983
20,34,106496,13.54566268125159
21,36,106496,13.827057907037133
22,38,106496,14.060734090308951
23,41,106496,13.884745762711864
24,42,106496,14.241240973522332
25,44,106496,14.001577701814357
26,46,106496,13.490752470230555
27,48,106496,13.656835085919466
28,50,106496,13.43628564219026
29,52,106496,13.437981072555205
30,54,106496,12.718977666308373
31,55,106496,13.222746461385647
32,56,106496,14.364175883463718
33,57,106496,14.180559254327564
34,58,106496,14.001577701814357
35,59,106496,12.916434202546998
36,60,106496,15.146636324847107
37,62,106496,13.884745762711864
38,64,106496,15.01000704721635
39,66,106496,14.180559254327564
40,67,106496,13.490752470230555
41,68,106496,14.364175883463718
42,70,106496,14.239336809733922
43,72,106496,15.571867232051469
44,73,106496,14.120392468841157
45,74,106496,14.302444265377384
46,76,106496,14.364175883463718
47,77,106496,12.622496147919877
48,78,106496,13.383938670353148
49,80,106496,13.884745762711864
50,81,106496,14.120392468841157
51,84,106496,13.827057907037133
52,85,106496,14.120392468841157
53,86,106496,12.966760014610983
54,88,106496,14.12226495159793
55,90,106496,11.901654000894055
56,92,106496,13.11850209411185
57,94,106496,13.017479525730351
58,96,106496,13.43628564219026
59,97,106496,13.656835085919466
60,98,106496,12.527467356781555
61,100,106496,13.43628564219026
62,101,106496,12.527467356781555
63,102,106496,13.769847426945953
64,103,106496,12.622496147919877
65,104,106496,14.489251700680272
66,105,106496,12.966760014610983
67,106,106496,13.170418006430868
68,107,106496,12.86649752325722
69,108,106496,14.060734090308951
70,109,106496,12.574802219860668
71,110,106496,13.771628087417561
72,112,106496,14.060734090308951
73,114,106496,12.96518139761383
74,115,106496,14.001577701814357
75,116,106496,13.382256848454386
76,117,106496,14.809623140036157
77,118,106496,13.43628564219026
78,119,106496,14.180559254327564
79,120,106496,13.383938670353148
80,121,106496,12.670553242117787
81,122,106496,13.54566268125159
82,123,106496,14.120392468841157
83,124,106496,14.302444265377384
84,125,106496,13.884745762711864
85,126,106496,13.827057907037133
86,127,106496,14.060734090308951
87,128,106496,13.94291699397748
88,130,106496,13.490752470230555
89,132,106496,13.769847426945953
90,134,106496,12.86649752325722
91,135,106496,13.769847426945953
92,136,106496,14.678980013783598
93,137,106496,13.884745762711864
94,138,106496,14.001577701814357
95,140,106496,14.060734090308951
96,141,106496,14.060734090308951
97,142,106496,12.073007595510713
98,143,106496,13.120118270296908
99,144,106496,14.487280642089512
100,145,106496,13.172047000618429
101,148,106496,14.180559254327564
102,150,106496,13.490752470230555
103,152,106496,14.001577701814357
104,154,106496,13.383938670353148
105,156,106496,13.827057907037133
106,157,106496,13.547385828774965
107,158,106496,14.241240973522332
108,160,106496,14.424488690234321
109,162,106496,13.713108421323719
110,164,106496,14.300523700819122
111,166,106496,13.54566268125159
112,168,106496,12.864943223000726
113,169,106496,14.241240973522332
114,170,106496,14.241240973522332
115,172,106496,12.86649752325722
116,173,106496,13.33032920265365
117,174,106496,13.94291699397748
118,175,106496,12.816945480803948
119,176,106496,13.275492395911243
120,178,106496,14.058877887788778
121,179,106496,13.54566268125159
122,180,106496,14.302444265377384
123,181,106496,15.01000704721635
124,182,106496,14.180559254327564
125,183,106496,13.328660826032541
126,184,106496,13.54566268125159
127,185,106496,14.426442698455704
128,186,106496,13.94291699397748
129,187,106496,13.714874436574371
130,188,106496,13.328660826032541
131,190,106496,14.120392468841157
132,192,106496,14.180559254327564
133,194,106496,13.437981072555205
134,195,106496,13.547385828774965
135,196,106496,14.426442698455704
136,198,106496,13.827057907037133
137,200,106496,13.33032920265365
138,201,106496,14.68100358422939
139,202,106496,14.120392468841157
140,203,106496,13.713108421323719
141,204,106496,14.616524842163052
142,205,106496,14.239336809733922
143,206,106496,14.241240973522332
144,208,106496,14.302444265377384
145,209,106496,14.120392468841157
146,212,106496,14.487280642089512
147,214,106496,13.94291699397748
148,216,106496,12.207244383310409
149,218,106496,13.22438842667329
150,220,106496,12.966760014610983
151,222,106496,13.601021711366538
152,224,106496,12.623992413466098
153,226,106496,13.94291699397748
154,228,106496,14.426442698455704
155,230,106496,13.94291699397748
156,232,106496,13.658586635885596
157,233,106496,14.060734090308951
158,234,106496,14.001577701814357
159,236,106496,13.769847426945953
160,237,106496,13.882935731977577
161,238,106496,13.884745762711864
162,240,106496,13.94291699397748
163,242,106496,13.43628564219026
164,244,106496,13.06859737391091
165,245,106496,13.94291699397748
166,246,106496,13.170418006430868
167,247,106496,14.120392468841157
168,248,106496,13.94291699397748
169,249,106496,14.060734090308951
170,250,106496,13.172047000618429
171,251,106496,14.062590783045028
172,252,106496,14.060734090308951
173,254,106496,13.713108421323719
174,255,106496,13.328660826032541
175,256,106496,14.001577701814357
176,258,106496,13.172047000618429
177,260,106496,14.120392468841157
178,262,106496,13.22438842667329
179,264,106496,13.222746461385647
180,265,106496,14.180559254327564
181,266,106496,12.966760014610983
182,267,106496,13.884745762711864
183,268,106496,13.827057907037133
184,270,106496,13.11850209411185
185,271,106496,13.54566268125159
186,272,106496,14.550621669626999
187,273,106496,14.614519006449843
188,276,106496,13.827057907037133
189,277,106496,14.178671282119558
190,278,106496,14.178671282119558
191,280,106496,13.017479525730351
192,281,106496,13.602758973048921
193,282,106496,13.222746461385647
194,284,106496,13.769847426945953
195,285,106496,15.080147267063156
196,286,106496,14.364175883463718
197,288,106496,13.601021711366538
198,290,106496,12.916434202546998
199,291,106496,14.178671282119558
200,292,106496,13.769847426945953
201,294,106496,14.302444265377384
202,296,106496,14.364175883463718
203,297,106496,14.241240973522332
204,298,106496,13.170418006430868
205,300,106496,13.601021711366538
206,301,106496,14.001577701814357
207,302,106496,14.001577701814357
208,304,106496,13.43628564219026
209,306,106496,13.713108421323719
210,307,106496,14.180559254327564
211,308,106496,13.547385828774965
212,309,106496,14.241240973522332
213,310,106496,13.017479525730351
214,311,106496,14.120392468841157
215,312,106496,14.426442698455704
216,313,106496,14.241240973522332
217,314,106496,13.275492395911243
218,315,106496,13.328660826032541
219,316,106496,13.944742700013094
220,317,106496,13.602758973048921
221,318,106496,13.017479525730351
222,319,106496,13.656835085919466
223,320,106496,13.383938670353148
224,322,106496,13.277147487844408
225,324,106496,15.146636324847107
226,326,106496,13.601021711366538
227,328,106496,14.001577701814357
228,329,106496,14.180559254327564
229,330,106496,13.017479525730351
230,332,106496,13.547385828774965
231,333,106496,12.86649752325722
232,334,106496,13.769847426945953
233,336,106496,11.692577953447518
234,337,106496,13.94291699397748
235,340,106496,14.809623140036157
236,342,106496,13.490752470230555
237,344,106496,12.767773648243615
238,346,106496,14.001577701814357
239,348,106496,14.180559254327564
240,350,106496,13.884745762711864
241,352,106496,13.172047000618429
242,354,106496,13.884745762711864
243,356,106496,13.94291699397748
244,358,106496,13.437981072555205
245,360,106496,13.602758973048921
246,362,106496,12.528941176470589
247,364,106496,14.120392468841157
248,366,106496,13.172047000618429
249,367,106496,13.602758973048921
250,368,106496,14.426442698455704
251,369,106496,14.241240973522332
252,370,106496,13.11850209411185
253,371,106496,13.06859737391091
254,372,106496,13.656835085919466
255,373,106496,14.241240973522332
256,374,106496,14.302444265377384
257,375,106496,14.060734090308951
258,376,106496,14.120392468841157
259,377,106496,14.060734090308951
260,378,106496,14.614519006449843
261,380,106496,13.54566268125159
262,382,106496,12.718977666308373
263,384,106496,14.120392468841157
264,386,106496,13.601021711366538
265,388,106496,14.001577701814357
266,390,106496,13.33032920265365
267,392,106496,13.601021711366538
268,394,106496,14.302444265377384
269,395,106496,13.656835085919466
270,396,106496,13.437981072555205
271,398,106496,13.492461674901811
272,400,106496,13.656835085919466
273,404,106496,14.180559254327564
274,406,106496,14.180559254327564
275,408,106496,13.015888535810316
276,410,106496,13.437981072555205
277,412,106496,14.302444265377384
278,414,106496,15.080147267063156
279,416,106496,14.001577701814357
280,418,106496,14.178671282119558
281,419,106496,13.601021711366538
282,420,106496,14.364175883463718
283,422,106496,13.714874436574371
284,424,106496,12.916434202546998
285,425,106496,13.769847426945953
286,426,106496,14.809623140036157
287,428,106496,13.490752470230555
288,429,106496,14.489251700680272
289,430,106496,14.614519006449843
290,432,106496,14.180559254327564
291,433,106496,14.302444265377384
292,434,106496,13.492461674901811
293,435,106496,14.180559254327564
294,436,106496,13.713108421323719
295,437,106496,14.001577701814357
296,802,106496,14.942612599971937
297,804,106496,14.302444265377384
298,805,106496,13.170418006430868
299,806,106496,14.001577701814357
300,809,106496,13.656835085919466
301,810,106496,14.302444265377384
302,812,106496,13.601021711366538
303,814,106496,14.746053724729991
304,815,106496,12.916434202546998
305,816,106496,13.54566268125159
306,818,106496,12.670553242117787
307,820,106496,13.277147487844408
308,821,106496,13.94291699397748
309,822,106496,14.489251700680272
310,824,106496,14.060734090308951
311,825,106496,14.744012183303337
312,826,106496,14.239336809733922
313,828,106496,13.328660826032541
314,832,106496,13.22438842667329
315,833,106496,14.302444265377384
316,834,106496,13.490752470230555
317,836,106496,13.94291699397748
318,838,106496,12.574802219860668
319,840,106496,13.437981072555205
320,841,106496,13.172047000618429
321,842,106496,14.180559254327564
322,844,106496,13.54566268125159
323,846,106496,13.547385828774965
324,848,106496,13.437981072555205
325,850,106496,14.120392468841157
326,851,106496,14.060734090308951
327,852,106496,14.120392468841157
328,853,106496,13.170418006430868
329,854,106496,14.616524842163052
330,855,106496,14.426442698455704
331,856,106496,13.94291699397748
332,857,106496,13.22438842667329
333,858,106496,14.302444265377384
334,859,106496,13.437981072555205
335,860,106496,13.328660826032541
336,862,106496,13.43628564219026
337,863,106496,13.222746461385647
338,864,106496,13.383938670353148
339,865,106496,13.06859737391091
340,866,106496,14.809623140036157
341,867,106496,13.884745762711864
342,868,106496,14.120392468841157
343,869,106496,13.601021711366538
344,870,106496,13.94291699397748
345,872,106496,13.437981072555205
346,873,106496,12.622496147919877
347,874,106496,13.884745762711864
348,875,106496,12.622496147919877
349,876,106496,14.120392468841157
350,877,106496,14.001577701814357
351,878,106496,14.362238705327039
352,879,106496,13.490752470230555
353,880,106496,13.43628564219026
354,881,106496,13.222746461385647
355,882,106496,13.769847426945953
356,883,106496,14.746053724729991
357,884,106496,14.060734090308951
358,885,106496,13.170418006430868
359,886,106496,13.94291699397748
360,888,106496,13.490752470230555
361,890,106496,13.017479525730351
362,892,106496,13.277147487844408
