idx,og Index,data (B),bandwidth (GB/s)
0,5,16801792,11.570039822859547
1,7,16801792,12.166571565120421
2,9,16801792,11.959004917616227
3,11,16801792,11.786132568625856
4,13,16801792,11.786661728020922
5,15,16801792,10.326251386673796
6,17,16801792,10.960194600983833
7,19,16801792,11.896960650750986
8,21,16801792,12.104863042319275
9,23,16801792,12.10877129258878
10,25,16801792,11.724015409853681
11,27,16801792,12.047922672058972
12,29,16801792,12.090647154827252
13,31,16801792,11.578970146671987
14,37,16801792,12.163752986317238
15,39,16801792,12.100399558670595
16,41,16801792,12.081188432057754
17,43,16801792,12.069524540185794
18,45,16801792,11.654282075683714
19,47,16801792,11.340876461753936
20,49,16801792,11.826750946743063
21,51,16801792,12.019515321816813
22,53,16801792,11.909913945872379
23,55,16801792,10.983128315014818
24,56,16801792,11.187910887140003
25,57,16801792,11.943499057772646
26,59,16801792,12.004950084740193
27,61,16801792,11.658673231835053
28,63,16801792,11.859072775884606
29,69,16801792,11.631562478366217
30,71,16801792,11.8262181817158
31,73,16801792,11.0599371493946
32,75,16801792,11.738693804377368
33,77,16801792,11.835815302076965
34,79,16801792,11.991515480251795
35,81,16801792,11.932650214622756
36,83,16801792,11.865772873781417
37,85,16801792,12.006322655515316
38,87,16801792,11.964463636182376
39,89,16801792,11.972921280737909
40,91,16801792,10.795915980749337
41,93,16801792,10.747733461610057
42,95,16801792,11.711993754269542
43,101,16801792,11.320581519369942
44,103,16801792,11.266646370984507
45,105,16801792,12.168545347621158
46,107,16801792,12.27264572942871
47,109,16801792,11.897221799333686
48,111,16801792,12.190865372057454
49,113,16801792,12.014839604696729
50,115,16801792,11.606870258011167
51,117,16801792,11.808929409813299
52,119,16801792,11.998914499712914
53,121,16801792,11.108608120848766
54,122,16801792,11.639813893684412
55,123,16801792,10.31265620780241
56,125,16801792,11.224984149741353
57,127,16801792,12.017864653221446
58,133,16801792,11.971001915868507
59,135,16801792,11.42129831356685
60,137,16801792,11.685918787353568
61,139,16801792,11.419311121970383
62,141,16801792,11.575651560444982
63,143,16801792,11.796724792104902
64,145,16801792,12.027499949890762
65,147,16801792,11.482995019782134
66,149,16801792,11.868455033242258
67,151,16801792,11.372071411698853
68,153,16801792,11.356820970025922
69,155,16801792,11.165776822585425
70,157,16801792,10.693230570467556
71,159,16801792,11.830748215014998
72,165,16801792,11.931836710345788
73,167,16801792,12.256602540347641
74,169,16801792,11.56342273842198
75,171,16801792,11.703639722374694
76,173,16801792,11.63078145669692
77,175,16801792,12.20787207514597
78,177,16801792,12.243749977227596
79,179,16801792,11.69893766872003
80,181,16801792,11.83208123829242
81,183,16801792,11.348229898721096
82,185,16801792,11.42254065956777
83,187,16801792,11.203898540847858
84,189,16801792,11.10390961324185
85,191,16801792,11.285292667625814
86,197,16801792,12.130031621352355
87,199,16801792,11.56366944922198
88,201,16801792,12.066196135207417
89,203,16801792,12.318137696226067
90,205,16801792,11.66696317035352
91,207,16801792,12.152219243156607
92,209,16801792,11.153450463051165
93,211,16801792,12.320170000212647
94,213,16801792,11.194828540836445
95,215,16801792,12.30977167076338
96,217,16801792,11.92668709130609
97,219,16801792,11.882152929628383
98,221,16801792,11.27730141481478
99,223,16801792,11.88995604016112
100,229,16801792,11.485758153505826
101,231,16801792,12.156149342625042
102,233,16801792,12.021716918761895
103,235,16801792,11.714084126041257
104,237,16801792,11.616371529374186
105,239,16801792,11.873009098136206
106,241,16801792,12.304570074376123
107,243,16801792,12.239745207339567
108,245,16801792,11.503884885781346
109,247,16801792,12.274654081617744
110,249,16801792,11.401457466581347
111,251,16801792,12.264332409713484
112,253,16801792,11.023018594111448
113,255,16801792,12.319591854392089
114,261,16801792,12.319871886997761
115,263,16801792,12.297365424082114
116,264,16801792,12.228351757601693
117,265,16801792,12.190299297971693
118,267,16801792,12.240030538533043
119,268,16801792,12.15052313993885
120,270,16801792,11.765005083620657
121,271,16801792,11.745521274253138
122,273,16801792,12.219520638605495
123,275,16801792,11.754732874201393
124,277,16801792,11.935905341316277
125,278,16801792,11.901266853902738
126,279,16801792,12.276672061493722
127,281,16801792,12.199088215412921
128,283,16801792,11.625630951878481
129,284,16801792,12.136480391562001
130,285,16801792,12.073687629526791
131,287,16801792,12.04985814239692
132,293,16801792,11.17219165712477
133,295,16801792,10.829532336564014
134,297,16801792,11.182899443177629
135,299,16801792,11.905053156061435
136,301,16801792,11.376753136568095
137,303,16801792,10.800135244410562
138,305,16801792,11.379950935968866
139,307,16801792,11.457178588817078
140,309,16801792,11.550703555312344
141,311,16801792,11.857993093455722
142,313,16801792,11.467946753449743
143,315,16801792,12.19567912525659
144,317,16801792,11.955473457410323
145,319,16801792,10.618621685589602
146,325,16801792,11.276090459498656
147,327,16801792,11.083283309959775
148,329,16801792,12.20504319615989
149,331,16801792,11.829940215887465
150,333,16801792,11.758944943213153
151,335,16801792,10.498029642523981
152,336,16801792,11.673456002712399
153,337,16801792,12.308031305947955
154,339,16801792,12.007146348644623
155,341,16801792,10.130990590640083
156,343,16801792,11.810523178491394
157,345,16801792,12.167135437637047
158,347,16801792,11.398479550730714
159,349,16801792,11.446196691448218
160,350,16801792,11.8352817201029
161,351,16801792,10.965688235658833
162,357,16801792,11.987135180487025
163,359,16801792,11.909643797863865
164,361,16801792,12.112961505076807
165,363,16801792,12.083960181844205
166,365,16801792,10.141943085622673
167,367,16801792,12.04597918705482
168,369,16801792,12.19737900474195
169,371,16801792,11.841954954624777
170,373,16801792,10.481473787569424
171,375,16801792,12.15334438108823
172,377,16801792,12.319293769155191
173,379,16801792,11.95791547367155
174,381,16801792,11.295740010555011
175,383,16801792,12.113240955690452
176,389,16801792,12.156993722450704
177,391,16801792,11.069263801175062
178,393,16801792,11.923699302183152
179,395,16801792,11.922895478582236
180,397,16801792,12.040463107082763
181,399,16801792,11.397497566418956
182,401,16801792,11.32961204263256
183,403,16801792,11.958468682118017
184,405,16801792,12.001108555592063
185,407,16801792,11.982484616986499
186,409,16801792,11.575396363370809
187,411,16801792,11.740268669752817
188,413,16801792,12.178141407932923
189,415,16801792,11.410129348544311
190,421,16801792,11.631047153327925
191,423,16801792,11.81264887271541
192,425,16801792,11.491791427080392
193,427,16801792,11.461180075499293
194,429,16801792,11.553491429667714
195,431,16801792,12.061206968336966
196,433,16801792,11.685666832659624
197,435,16801792,11.76157901958094
198,437,16801792,11.665667090427744
199,439,16801792,11.35019242604078
200,441,16801792,11.613810112337804
201,443,16801792,11.824886479121448
202,445,16801792,12.075353669509822
203,447,16801792,12.066473432172106
204,453,16801792,11.587147086591584
205,455,16801792,11.743427876483498
206,457,16801792,11.980835559891014
207,459,16801792,11.11943715176876
208,461,16801792,12.125269541973495
209,463,16801792,12.081188432057754
210,465,16801792,11.777135867717616
211,467,16801792,11.613031472796957
212,469,16801792,12.088428938051251
213,471,16801792,11.540286759276748
214,473,16801792,10.432532618367123
215,475,16801792,11.692693124594626
216,477,16801792,10.571799084252657
217,479,16801792,12.127790176960234
218,485,16801792,12.031634094014327
219,487,16801792,12.236607441976991
220,489,16801792,12.245739957377708
221,491,16801792,11.410369561467489
222,493,16801792,11.840085690527532
223,495,16801792,12.274376100832011
224,497,16801792,11.92668709130609
225,499,16801792,12.045435123610263
226,501,16801792,11.432987046038042
227,503,16801792,10.938282117685967
228,505,16801792,11.310088195815982
229,507,16801792,10.122390750085549
230,509,16801792,10.165511975571492
231,511,16801792,11.53318904656097
232,517,16801792,11.9061329886592
233,519,16801792,11.120614692604057
234,521,16801792,11.98111749085111
235,523,16801792,11.928846340897167
236,1561,16801792,11.723761809732476
237,1563,16801792,11.915589886445193
238,1565,16801792,10.757863127194963
239,1567,16801792,12.106816852044537
240,1569,16801792,11.848368343408074
241,1571,16801792,11.814243645599241
242,1573,16801792,12.074798271763221
243,1575,16801792,11.72139812993877
244,1577,16801792,11.855859415794272
245,1583,16809984,11.663839634194996
246,1585,16809984,12.010254094636034
247,1587,16809984,11.836249799325735
248,1589,16809984,10.290002038414004
249,1591,16809984,11.377862489500341
250,1593,16809984,12.125860929731976
251,1595,16809984,11.677581730992998
252,1597,16809984,9.86264681775325
253,1598,16809984,11.396375257706797
254,1599,16809984,10.797405537063849
255,1601,16809984,11.066028904679335
256,1603,16809984,10.779237667988903
257,1605,16809984,10.870243698033267
258,1607,16809984,10.296449834619626
259,1609,16809984,11.552007103013628
260,1615,16809984,11.354499148580619
261,1617,16809984,11.766786411273726
262,1619,16809984,12.110485774308167
263,1621,16809984,12.124741420348812
264,1623,16809984,12.043571835926418
265,1625,16809984,11.533492099104421
266,1627,16809984,12.169965567869523
267,1629,16809984,12.176453714944673
268,1631,16809984,11.957762950105991
269,1633,16809984,11.627437458368409
270,1635,16809984,11.62589346909107
271,1637,16809984,11.663839634194996
272,1639,16809984,11.599452113400105
273,1641,16809984,10.385001596981242
274,1647,16809984,12.098213694528809
275,1649,16809984,11.876120849712175
276,1651,16809984,11.235253465153303
277,1653,16809984,11.972752524892808
278,1655,16809984,12.089582380405796
279,1657,16809984,10.85227846417841
280,1659,16809984,11.427853532984447
281,1661,16809984,12.12110444205371
282,1663,16809984,12.263723564756315
283,1665,16809984,11.98996864488261
284,1667,16809984,9.594947835626572
285,1668,16809984,11.240542488756104
286,1669,16809984,11.163868612896307
287,1671,16809984,12.060438567037735
288,1673,16809984,11.486835226966003
289,1679,16809984,12.128660607862209
290,1681,16809984,11.808039449144953
291,1683,16809984,12.043295725163276
292,1685,16809984,10.528619897669985
293,1687,16809984,10.545952100879877
294,1689,16809984,9.579200862527795
295,1690,16809984,11.188590156427422
296,1691,16809984,8.808066750642922
297,1693,16809984,10.351638282254529
298,1695,16809984,10.746594298098406
299,1697,16809984,11.932502150833786
300,1699,16809984,12.088469559464396
301,1701,16809984,11.957482254040901
302,1703,16809984,10.070248587408164
303,1705,16809984,10.623805689713794
304,1711,16809984,11.93792556863213
305,1713,16809984,11.601501502123263
306,1715,16809984,11.733137524926834
307,1717,16809984,11.866462985918357
308,1719,16809984,12.089582380405796
309,1721,16809984,12.18351389980083
310,1723,16809984,12.037500322241542
311,1725,16809984,11.654523810679326
312,1727,16809984,11.114024312033967
313,1729,16809984,11.457764363796974
314,1731,16809984,11.901952176905235
315,1733,16809984,11.913018581775402
316,1735,16809984,12.043010999198327
317,1737,16809984,11.836516497908717
318,1743,16809984,12.17532484463952
319,1745,16809984,10.994002671002358
320,1747,16809984,10.724873244127313
321,1749,16809984,11.926542079945511
322,1751,16809984,11.990789695186846
323,1753,16809984,11.104157226032239
324,1755,16809984,11.36088378433359
325,1757,16809984,11.94307389863937
326,1759,16809984,11.306598795620758
327,1761,16809984,12.20985868945455
328,1763,16809984,11.842119945784033
329,1765,16809984,11.865658872923683
330,1767,16809984,11.939553555447596
331,1769,16809984,12.0687510230807
332,1775,16809984,12.10769447957752
333,1777,16809984,12.245427446683896
334,1779,16809984,12.208431015399633
335,1781,16809984,12.152229043349015
336,1783,16809984,11.01359502166686
337,1785,16809984,11.523877620553517
338,1787,16809984,11.817336562424208
339,1789,16809984,11.70099169653404
340,1791,16809984,11.704380896148413
341,1793,16809984,11.94498338643799
342,1795,16809984,12.044676405595728
343,1797,16809984,12.228893680544036
344,1799,16809984,12.125860929731976
345,1801,16809984,11.271663440281248
346,1807,16809984,12.079852138444867
347,1809,16809984,11.91463978203489
348,1811,16809984,11.140658737638232
349,1813,16809984,12.053796842059976
350,1815,16809984,11.873973299427846
351,1817,16809984,11.77074131233037
352,1819,16809984,11.679139480739822
353,1821,16809984,11.02955082587203
354,1823,16809984,11.556327353048543
355,1825,16809984,11.764151286709646
356,1827,16809984,12.044124095435983
357,1829,16809984,11.861363740602101
358,1831,16809984,10.719183275252437
359,1833,16809984,11.675505377613709
360,1839,16809984,11.8394426371063
361,1841,16809984,11.952865419566596
362,1843,16809984,12.240291495428636
363,1845,16809984,10.728603722912005
364,1847,16809984,11.596123400530207
365,1849,16809984,11.715344048829545
366,1851,16809984,11.908149191328933
367,1853,16809984,10.706075592226146
368,1855,16809984,9.93014276735207
369,1857,16809984,11.984771269602712
370,1859,16809984,11.981209226609002
371,1861,16809984,11.823986326084892
372,1863,16809984,11.833575143977647
373,1865,16809984,11.880418281585264
374,1870,16809984,10.973792130980591
375,1871,16809984,9.629779591836735
376,1873,16809984,9.665570927590947
377,1875,16809984,12.11999454924176
378,1877,16809984,12.282657762157541
379,1879,16809984,11.956946416326902
380,1881,16809984,11.673948597076162
381,1882,16809984,11.35032845761651
382,1883,16809984,10.405160370228462
383,1884,16809984,11.292987122220334
384,1885,16809984,12.130621151897747
385,1887,16809984,11.299052115499142
386,1889,16809984,11.345425683341512
387,1891,16809984,11.31609013567204
388,1892,16809984,11.640577943819096
389,1893,16809984,12.146890075237085
390,1895,16809984,11.736283162362312
391,1897,16809984,10.968743943857726
392,1902,16809984,11.464273511501453
393,1903,16809984,12.107415420871735
394,1905,16809984,12.00119940715018
395,1907,16809984,12.180971290271156
396,1909,16809984,12.137067404470141
397,1911,16809984,11.537291705702009
398,1913,16809984,11.152247899912295
399,1915,16809984,12.066524586374792
400,1917,16809984,12.188036716404925
401,1919,16809984,11.372935904886713
402,1921,16809984,10.85676420325742
403,1923,16809984,12.23744005031842
404,1925,16809984,12.17165746128381
405,1927,16809984,11.940639126691652
406,1929,16809984,11.51831866647755
407,1934,16809984,11.445789055472979
408,1935,16809984,11.668511232601338
409,1937,16809984,10.821427605803535
410,1939,16809984,11.62203528926174
411,1941,16809984,12.093478867686711
412,1943,16809984,11.534505082803554
413,1945,16809984,11.535011641383626
414,1947,16809984,11.805120519790977
415,1948,16809984,11.920046971128073
416,1949,16809984,12.134824452741274
417,1951,16809984,11.591773349929147
418,1953,16809984,11.885794446974176
419,1955,16809984,12.000651076989854
420,1957,16809984,11.393409167467007
421,1959,16809984,11.250894517241795
422,1961,16809984,11.944440181106591
423,1966,16809984,11.556581586037492
424,1967,16809984,11.764406512770448
425,1969,16809984,12.197375638893485
426,1971,16809984,12.126700697448268
427,1973,16809984,12.168556015948713
428,1975,16809984,11.980124804369579
429,1977,16809984,12.035018285226625
430,1979,16809984,12.030599691254869
431,1981,16809984,11.606892608867371
432,1983,16809984,11.882559764525753
433,1985,16809984,11.917072409930666
434,1987,16809984,11.00459692761312
435,1988,16809984,12.030332784656123
436,1989,16809984,11.204579417947874
437,1991,16809984,12.019047455620287
438,1992,16809984,11.678100934735262
439,1993,16809984,11.85120345172798
440,1998,16809984,11.794783206626414
441,1999,16809984,11.819995570134267
442,2000,16809984,11.570836508261007
443,2002,16809984,12.11132341371052
444,2003,16809984,10.899112120265107
445,2004,16809984,11.529441942928866
446,2005,16809984,11.686154500703186
447,2006,16809984,12.02757831170132
448,2007,16809984,12.117190135545425
449,2008,16809984,11.607397530611864
450,2009,16809984,11.816539093380271
451,2011,16809984,11.386987932219922
452,2012,16809984,12.087913225814802
453,2013,16809984,11.913558932838932
454,2014,16809984,12.06154623286197
455,2015,16809984,11.805385817370999
456,2016,16809984,11.72004883242127
457,2019,16809984,11.254027955005268
458,2021,16809984,11.996266238863658
459,2023,16809984,11.97411707720143
460,2024,16809984,12.131461579097783
461,2025,16809984,11.056712239746057
462,2030,16809984,11.701512984097482
463,2031,16809984,11.778122659349883
464,2033,16809984,11.827447161656238
465,2035,16809984,11.526406192037927
466,2037,16809984,10.415888675668993
467,2041,16809984,11.532479293314243
468,2043,16809984,11.78816624065133
469,2045,16809984,12.180123989577687
470,2047,16809984,11.588704690431003
471,2048,16809984,11.915180280180662
472,2049,16809984,11.534251820197243
473,2051,16809984,11.55048308000349
474,2053,16809984,12.180123989577687
475,2055,16809984,12.030332784656123
476,2056,16809984,12.100164406911425
477,2057,16809984,11.96675218761835
478,2059,16809984,12.254854560034993
479,2061,16809984,12.201908754896012
480,2063,16809984,12.226901244948488
481,2065,16809984,12.19284588982473
482,2067,16809984,11.725542524837458
483,2069,16809984,11.510746911919078
484,2071,16809984,11.825583383104947
485,2077,16818176,12.188885893276977
486,2079,16818176,12.018296661166616
487,2081,16818176,12.114153343494383
488,2083,16818176,12.29179590774745
489,2085,16818176,11.823635775649949
490,2087,16818176,11.588727809692728
491,2089,16818176,11.62486996635887
492,2091,16818176,10.949404618519651
493,2093,16818176,11.483644274318161
494,2095,16818176,11.1733384001924
495,2096,16818176,11.881900038503792
496,2097,16818176,10.751838303454642
497,2099,16818176,10.587650640143886
498,2101,16818176,11.832145417501232
499,2103,16818176,11.822297640696734
500,2109,16818176,10.013537007663984
501,2111,16818176,11.998824244534307
502,2113,16818176,12.215232201740243
503,2115,16818176,11.835884212511647
504,2117,16818176,11.864473546832365
505,2119,16818176,12.09157811488964
506,2121,16818176,12.242548123818924
507,2123,16818176,11.838541941632897
508,2125,16818176,12.067147108880144
509,2127,16818176,11.173820924418377
510,2129,16818176,11.79020689780876
511,2131,16818176,12.049441022980963
512,2133,16818176,10.921191357166883
513,2135,16818176,10.901250020255707
514,2141,16818176,12.168566673902033
515,2143,16818176,12.000733536982608
516,2145,16818176,11.94400622121534
517,2147,16818176,11.912610603798283
518,2149,16818176,12.12981025822998
519,2151,16818176,12.29008027418182
520,2153,16818176,12.069086869533518
521,2155,16818176,11.853761440085142
522,2157,16818176,11.935055469963617
523,2159,16818176,11.890502191356038
524,2161,16818176,9.53882330788048
525,2162,16818176,11.552809691124597
526,2163,16818176,9.847306861776127
527,2165,16818176,10.41167472183513
528,2167,16818176,10.109069576214543
529,2173,16818176,11.837217093612841
530,2175,16818176,11.696020696273836
531,2177,16818176,12.146630497271406
532,2178,16818176,11.767767792982376
533,2179,16818176,11.102300775594998
534,2180,16818176,11.880557076303065
535,2181,16818176,11.091983754615017
536,2183,16818176,11.168589616733717
537,2185,16818176,10.16774118659889
538,2187,16818176,10.532062084534914
539,2188,16818176,11.51710564700694
540,2189,16818176,10.071294774814481
541,2190,16818176,11.388826363184505
542,2191,16818176,10.091599902073263
543,2193,16818176,12.16744861733999
544,2195,16818176,12.147481507751179
545,2197,16818176,11.763026936895917
546,2199,16818176,11.470853914222538
547,2205,16818176,11.733098180823722
548,2207,16818176,11.528987717760062
549,2209,16818176,12.038392464093855
550,2211,16818176,12.16913898707341
551,2213,16818176,11.993613171870287
552,2215,16818176,11.797087725279018
