idx,og Index,data (B),bandwidth (GB/s)
0,0,16793600,11.695065865527914
1,1,16793600,11.9974424278361
2,2,16793600,11.727202324546916
3,3,16793600,11.994708888895238
4,4,16793600,11.60813957748241
5,6,16793600,11.935503816907826
6,8,16793600,11.89978827310785
7,10,16793600,11.818322566116342
8,12,16793600,11.609166717936985
9,14,16793600,11.666978136226364
10,16,16801792,12.12442956313412
11,17,16801792,12.122749954544537
12,18,16801792,12.194546135466958
13,19,16801792,12.102909863107637
14,20,16801792,12.13478867858301
15,22,16801792,11.8762317625629
16,24,16801792,12.01125792354649
17,26,16801792,12.09789029535865
18,28,16801792,11.787182665709762
19,30,16801792,11.035072682504248
20,32,16801792,11.416083410055274
21,33,16801792,12.168836182203092
22,34,16801792,11.53014984164891
23,35,16801792,12.119383391146725
24,36,16801792,11.600467283267006
25,38,16801792,11.780843586715992
26,40,16801792,11.577438255080265
27,42,16801792,11.395765974922494
28,44,16801792,11.404181494480762
29,46,16801792,11.541808834449723
30,48,16801792,11.477221852212374
31,49,16801792,12.207588241277591
32,50,16801792,11.481237354048378
33,51,16801792,11.316669967010037
34,52,16801792,11.384392307681884
35,54,16801792,11.494810441374167
36,56,16801792,11.512453021525307
37,58,16801792,11.511443415300228
38,60,16801792,11.580502443707875
39,62,16801792,11.672409852408393
40,64,16801792,11.699467173960878
41,65,16801792,12.047646227050965
42,66,16801792,11.636968089711456
43,67,16801792,12.158119744706717
44,68,16801792,11.673966981482755
45,70,16801792,11.703109839384984
46,72,16801792,11.572342846437614
47,74,16801792,11.530909492700959
48,76,16801792,11.624601398262723
49,78,16801792,11.677082486313903
50,80,16801792,11.29695519016194
51,81,16801792,12.276376049591269
52,82,16801792,11.288689536366531
53,83,16801792,12.057329356752676
54,84,16801792,11.647301857546507
55,86,16801792,11.396013312922175
56,88,16801792,11.516745824425373
57,90,16801792,11.674486116833856
58,92,16801792,11.574630839656793
59,94,16801792,11.529137129262839
60,96,16801792,11.643685775982746
61,97,16801792,11.90774466565131
62,98,16801792,11.372071411698853
63,99,16801792,11.482492774660294
64,100,16801792,11.020242288292897
65,102,16801792,11.579991632969959
66,104,16801792,11.531922516491292
67,106,16801792,11.873285977166148
68,108,16801792,11.768433144217973
69,110,16801792,11.770807587437965
70,112,16801792,11.599185934449498
71,113,16801792,12.129751395494567
72,114,16801792,11.698945814591486
73,115,16801792,12.123309772365843
74,116,16801792,11.581524200391387
75,118,16801792,11.727689751929976
76,120,16801792,11.656861377929948
77,122,16801792,11.634131732795266
78,124,16801792,11.585101769090798
79,126,16801792,11.494810441374167
80,128,16801792,11.56366944922198
81,129,16801792,12.081188432057754
82,130,16801792,11.740014366009017
83,131,16801792,12.126661012973422
84,132,16801792,11.12814949339204
85,134,16801792,11.771599281448538
86,136,16801792,11.76684247349066
87,138,16801792,11.680719344336602
88,140,16801792,11.51295789105107
89,142,16801792,11.670074937505774
90,144,16801792,11.743157020715376
91,145,16801792,11.763950697499867
92,146,16801792,11.782685927433409
93,147,16801792,11.178851868066358
94,148,16801792,11.866845592078313
95,150,16801792,11.906402977417097
96,152,16801792,11.911526646716988
97,154,16801792,11.897769406166352
98,156,16801792,11.774767122750069
99,158,16801792,11.890755428294007
100,160,16801792,11.629243875225985
101,161,16801792,12.24632011819354
102,162,16801792,11.845419660312418
103,163,16801792,12.17842387412332
104,164,16801792,11.623572026983181
105,166,16801792,11.646777063564517
106,168,16801792,11.830473316326495
107,170,16801792,11.89642154155515
108,172,16801792,11.921541915360404
109,174,16801792,11.874360054390076
110,176,16801792,11.547647177279403
111,177,16801792,12.124149596049103
112,178,16801792,11.642128647044842
113,179,16801792,12.120519943703304
114,180,16801792,11.783223041037711
115,182,16801792,11.508667911022826
116,184,16801792,11.91964744308266
117,186,16801792,11.843290504667733
118,188,16801792,11.792220771746607
119,190,16801792,11.701805716418876
120,192,16801792,11.69476847176119
121,193,16801792,11.979477351220778
122,194,16801792,11.661003586070196
123,195,16801792,11.339406917785245
124,196,16801792,11.725848201356005
125,198,16801792,11.883228611762576
126,200,16801792,11.813172110106708
127,202,16801792,11.838217016467459
128,204,16801792,11.763942460852304
129,206,16801792,11.710687650724173
130,208,16801792,11.511948196276967
131,209,16801792,12.200496681528385
132,210,16801792,11.667489785091094
133,211,16801792,12.044606169048091
134,212,16801792,11.644452391397609
135,214,16801792,11.888332350999539
136,216,16801792,11.727157689019176
137,218,16801792,11.833139539387828
138,220,16801792,12.16403478542904
139,222,16801792,11.571314739938334
140,224,16801792,11.699719724111038
141,225,16801792,12.18719566994501
142,226,16801792,11.819296601751883
143,227,16801792,12.242599118043957
144,228,16801792,11.88564960880576
145,230,16801792,11.444949194613546
146,232,16801792,11.629759040481089
147,234,16801792,11.692945382370729
148,236,16801792,11.625630951878481
149,238,16801792,11.978930737794913
150,240,16801792,11.57412054676376
151,241,16801792,11.245893344078263
152,242,16801792,11.675524526062482
153,243,16801792,12.210436047758062
154,244,16801792,11.64393592360175
155,246,16801792,11.415338812564501
156,248,16801792,11.754461496701056
157,250,16801792,11.764469629549756
158,252,16801792,11.913697305238916
159,254,16801792,11.738964454294186
160,256,16801792,11.868991610648175
161,257,16801792,11.962828052687788
162,258,16801792,11.785868006745288
163,259,16801792,11.416579862349757
164,260,16801792,11.827009022059947
165,262,16801792,11.655050087091396
166,264,16801792,11.683318487366325
167,266,16801792,11.904513313211183
168,268,16801792,11.884834093386441
169,270,16801792,11.729253477736691
170,272,16801792,11.823022599267613
171,273,16801792,12.193130194227459
172,274,16801792,11.617656678160927
173,275,16801792,12.209575355565955
174,276,16801792,11.087730227340218
175,278,16801792,11.872740621711937
176,280,16801792,11.978375634590144
177,282,16801792,11.733455497235948
178,284,16801792,11.568255410853034
179,286,16801792,11.777664219557108
180,288,16801792,11.740793718786271
181,289,16801792,12.16769936242262
182,290,16801792,11.691122861291968
183,291,16801792,11.130751848468327
184,292,16801792,11.454686887486748
185,294,16801792,11.721144643031547
186,296,16801792,11.868991610648175
187,298,16801792,11.860948040469756
188,300,16801792,11.910184106136777
189,302,16801792,11.776087559890438
190,304,16801792,11.751041569771711
191,305,16801792,11.762624745782883
192,306,16801792,11.849696983374814
193,307,16801792,10.96821515253985
194,308,16801792,11.776871709574067
195,310,16801792,11.658414361079481
196,312,16801792,11.83021508980147
197,314,16801792,11.869796567733987
198,316,16801792,11.822490170084972
199,318,16801792,11.751304570420226
200,320,16801792,11.736594640999796
201,321,16801792,11.530909492700959
202,322,16801792,11.798572103706814
203,323,16801792,12.107654392159688
204,324,16801792,11.916122283254314
205,326,16801792,11.705457993382941
206,328,16801792,11.76789737806992
207,330,16801792,11.474964366523176
208,332,16801792,11.65168775420335
209,334,16801792,11.639039826208876
210,336,16801792,11.664112174576475
211,337,16801792,10.90805876739098
212,338,16801792,11.64367770688366
213,339,16801792,11.087503406734015
214,340,16801792,11.875157346722558
215,342,16801792,12.015389500241712
216,344,16801792,11.697382015243962
217,346,16801792,11.956562456413016
218,348,16801792,11.825685464685794
219,350,16801792,11.619978698977828
220,352,16801792,11.753943447175857
221,353,16801792,12.132843353535733
222,354,16801792,11.530410960408243
223,355,16801792,11.47471358959737
224,356,16801792,11.536483327096516
225,358,16801792,11.958196326947768
226,360,16801792,12.047369794728978
227,362,16801792,11.66022669782206
228,364,16801792,11.85532402507416
229,366,16801792,11.863359966560191
230,368,16801792,11.966645110010171
231,369,16801792,11.72611825924799
232,370,16801792,11.79328023179747
233,371,16801792,10.389388618772983
234,372,16801792,11.43996192533089
235,374,16801792,11.682538623012007
236,376,16801792,11.928854810081647
237,378,16801792,11.747631846111249
238,380,16801792,11.840352692124469
239,382,16801792,11.763950697499867
240,384,16801792,11.7636788942201
241,385,16801792,12.11968062276973
242,386,16801792,11.803346313287816
243,387,16801792,12.110447029653015
244,388,16801792,11.803619952734355
245,390,16801792,11.97046460397662
246,392,16801792,11.960103073703392
247,394,16801792,11.667222420898767
248,396,16801792,11.652722111525463
249,398,16801792,11.780314949588433
250,400,16801792,11.799897885585503
251,401,16801792,11.053185148735006
252,402,16801792,11.460187258585869
253,403,16801792,11.239393619113494
254,404,16801792,11.963918391993005
255,406,16801792,11.701292297749413
256,408,16801792,11.649627667688211
257,410,16801792,11.479472383198578
258,412,16801792,11.715390987362673
259,414,16801792,11.920729924935792
260,416,16801792,11.611233776240836
261,417,16801792,12.049028578968656
262,418,16801792,11.79486977886978
263,419,16801792,11.85210433536185
264,420,16801792,11.916401176760957
265,422,16801792,11.773966751902028
266,424,16801792,11.57514117754855
267,426,16801792,11.438707999569733
268,428,16801792,11.761315558840906
269,430,16801792,11.937796503593392
270,432,16801792,11.60738344286633
271,433,16801792,11.166964199075101
272,434,16801792,11.494810441374167
273,435,16801792,12.252312377307637
274,436,16801792,11.650912106710972
275,438,16801792,11.616114533735336
276,440,16801792,11.943507547776044
277,442,16801792,11.963373197497074
278,444,16801792,11.632842936674926
279,446,16801792,11.899387246917113
280,448,16801792,11.719051750834893
281,449,16801792,11.94459436787133
282,450,16801792,11.661262571825368
283,451,16801792,12.12498953609542
284,452,16801792,11.571569757071162
285,454,16801792,11.676822797398849
286,456,16801792,11.638523838419102
287,458,16801792,11.948127899600918
288,460,16801792,11.868455033242258
289,462,16801792,11.961192916311903
290,464,16801792,11.681758862763012
291,465,16801792,11.20916812159049
292,466,16801792,11.519525226783605
293,467,16801792,11.42254065956777
294,468,16801792,11.651946326318177
295,470,16801792,11.822756378681904
296,472,16801792,11.845962508707263
297,474,16801792,11.775022934317096
298,476,16801792,11.886187742119873
299,478,16801792,11.486009413421474
300,480,16801792,11.936448035100781
301,481,16801792,12.288730972783364
302,482,16801792,11.436971649545939
303,483,16801792,11.939162244436801
304,484,16801792,11.672669345073304
305,486,16801792,11.425026162559423
306,488,16801792,11.8692599175457
307,490,16801792,11.747894694153809
308,492,16801792,11.871666837421438
309,494,16801792,11.828083069341782
310,496,16801792,11.52761839419564
311,497,16801792,10.499079241472439
312,498,16801792,11.628720707227655
313,499,16801792,12.165725854333868
314,500,16801792,11.853442175834115
315,502,16801792,11.140900115242971
316,504,16801792,11.634905147550178
317,506,16801792,11.552982998985783
318,508,16801792,11.772655039139902
319,510,16801792,11.63799983514592
320,512,16801792,11.670083043233046
321,513,16801792,12.166016554155084
322,514,16801792,11.659449913083908
323,515,16801792,11.707023952942784
324,516,16801792,11.778456836209283
325,518,16801792,11.852647796630256
326,519,16801792,11.378478954429312
327,520,16842752,12.119563997248358
328,521,16842752,12.073691967575535
329,522,16842752,11.960924561906845
330,523,16842752,11.754171386060742
331,524,16842752,11.63310860605776
332,526,16842752,11.816979010047703
333,528,16842752,11.913807360313273
334,530,16842752,12.046610763504447
335,532,16842752,11.912998395120146
336,534,16842752,11.847568374412027
337,536,16842752,11.850235805082807
338,537,16842752,12.074799909382106
339,538,16842752,11.807443923805357
340,539,16842752,12.315518234810662
341,540,16842752,11.863590995568785
342,542,16842752,11.934346311585761
343,544,16842752,11.997458436026385
344,546,16842752,11.73844276388189
345,548,16842752,11.768889510000873
346,550,16842752,11.98543765317363
347,552,16842752,11.80161117522459
348,553,16842752,12.002930402930403
349,554,16842752,11.685019463756342
350,555,16842752,10.964947846885591
351,556,16842752,11.758381015411853
352,558,16842752,12.07757065371719
353,560,16842752,12.06097387192107
354,562,16842752,11.83291894440069
355,564,16842752,11.668957815019041
356,566,16842752,11.999638074814495
357,568,16842752,11.74499123802245
358,569,16842752,12.186348310541929
359,570,16842752,11.679574278345905
360,571,16842752,12.134652460972285
361,572,16842752,11.87269810208852
362,574,16842752,11.843311310061232
363,576,16842752,12.043578617989194
364,578,16842752,11.821490963020361
365,580,16842752,11.799767406016619
366,582,16842752,11.83664445198755
367,584,16842752,11.903038595162107
368,585,16842752,12.19397119681213
369,586,16842752,11.598245673232194
370,587,16842752,11.299689376404682
371,588,16842752,11.649329477601876
372,590,16842752,11.741847058848135
373,592,16842752,11.843835988267799
374,594,16842752,12.053231656175484
375,596,16842752,11.741847058848135
376,598,16842752,11.981063906824748
377,600,16842752,11.773109690118634
378,601,16842752,12.131016620522557
379,602,16842752,11.592881041647022
380,603,16842752,11.326932375677975
381,604,16842752,11.684760054085217
382,606,16842752,12.074522904867733
383,608,16842752,11.89200379295761
384,610,16842752,11.874573106935479
385,612,16842752,12.040823446315567
386,614,16842752,11.75837280657356
387,616,16842752,11.676214086256763
388,617,16842752,12.090323794018564
389,618,16842752,11.901692816904992
390,619,16842752,11.198951034536869
391,620,16842752,11.791564248274085
392,622,16842752,11.951418750727328
393,624,16842752,12.025967275292532
394,626,16842752,12.02459355804131
395,628,16842752,12.0419253637011
396,630,16842752,11.98489182627308
397,632,16842752,11.924604070836434
398,633,16842752,12.055992509899474
399,634,16842752,11.679574278345905
400,635,16842752,11.869217520725455
401,636,16842752,11.747088293121474
402,638,16842752,11.945451399034875
403,640,16842752,12.023769478322201
404,642,16842752,12.025143007279592
405,644,16842752,12.071476693815884
406,646,16842752,11.916243345964563
407,648,16842752,11.855574271413095
408,649,16842752,12.251305671049455
409,650,16842752,11.806905911391171
410,651,16842752,12.1360514415331
411,652,16842752,11.876976322560946
412,654,16842752,11.967179475519606
413,656,16842752,11.979981620418975
414,658,16842752,12.01169593979729
415,660,16842752,11.991171838735124
416,662,16842752,11.932722908501455
417,664,16842752,11.85237895519069
418,665,16842752,12.06262372195755
419,666,16842752,11.691768160409284
420,667,16842752,11.892280883104705
421,668,16842752,11.808230337846696
422,670,16842752,11.689431191106934
423,672,16842752,11.943274461098163
424,674,16842752,11.762051514116695
425,676,16842752,11.889048967960578
426,678,16842752,11.780215967977597
427,680,16842752,11.850777773712458
428,681,16842752,10.801351102628775
429,682,16842752,11.662235418182775
430,683,16842752,11.892280883104705
431,684,16842752,11.920561448805167
432,686,16842752,11.849710559715879
433,688,16842752,11.848368477515345
434,690,16842752,11.87376946091743
435,692,16842752,11.704768357812734
436,694,16842752,11.699044710971759
437,696,16842752,11.852912778504976
438,697,16842752,11.978337260267933
439,698,16842752,11.593902493589633
440,699,16842752,11.841171437630635
441,700,16842752,11.609245901413352
442,702,16842752,11.671027804244261
443,704,16842752,11.923793638803483
444,706,16842752,11.902500247339335
445,708,16842752,11.89630434306613
446,710,16842752,11.513002987833346
447,712,16842752,11.9397608468189
448,713,16842752,12.12376019895842
449,714,16842752,11.910580581288452
450,715,16842752,10.499689860914309
451,716,16842752,11.66612085899599
452,718,16842752,11.744467091229977
453,720,16842752,11.964459144212109
454,722,16842752,11.76704772910031
455,724,16842752,11.789715364094983
456,726,16842752,11.623603100869351
457,728,16842752,11.76731902668593
458,729,16842752,11.924874239329371
459,730,16842752,11.733993970938727
460,731,16842752,12.290211759898426
461,732,16842752,11.806905911391171
462,734,16842752,11.965810654225393
463,736,16842752,11.907338713383316
464,738,16842752,11.88234729727823
465,740,16842752,11.9416570950497
466,742,16842752,11.698264647355645
467,744,16842752,11.77415491948535
468,745,16842752,10.77548555335617
469,746,16842752,11.699572938113537
470,747,16842752,11.359682952063766
471,748,16842752,11.655262660744029
472,750,16842752,11.587266271635718
473,752,16842752,11.635680330830413
474,754,16842752,11.877512363922802
475,756,16842752,11.93406725774578
476,758,16842752,11.796593834835448
477,760,16842752,11.541024585080935
478,761,16842752,12.328499360252502
479,762,16842752,11.809563341924953
480,763,16842752,10.802016132394147
481,764,16842752,11.737919201394382
482,766,16842752,11.899262776017435
483,768,16842752,12.008681342813222
484,770,16842752,11.745777545938083
485,772,16842752,11.945993639301287
486,774,16842752,11.886640864731804
487,776,16842752,11.973985718876278
488,777,16842752,12.243326151367917
489,778,16842752,11.673098528002196
490,779,16842752,11.867871016474902
491,780,16842752,11.730340960059284
492,782,16842752,11.932714454433192
493,784,16842752,11.52788038698329
494,786,16842752,11.92164146354584
495,788,16842752,11.750768140249432
496,790,16842752,12.036417792693001
497,792,16842752,12.01169593979729
498,793,16842752,12.26329447193446
499,794,16842752,11.9573920673821
500,795,16842752,11.083864293545428
501,796,16842752,11.513758539058008
502,798,16842752,11.716754098976482
503,800,16842752,11.857986499311448
504,802,16842752,11.784708131239487
505,804,16842752,11.952775798590315
506,806,16842752,11.988713658921306
507,808,16842752,11.974258129647799
508,809,16842752,12.284474785932053
509,810,16842752,11.955762388944573
510,811,16842752,11.849969007966465
511,812,16842752,11.83398313581633
512,814,16842752,11.940294105762094
513,816,16842752,11.880469836719607
514,818,16842752,11.782325621741414
515,820,16842752,11.950876017858105
516,822,16842752,11.141582137220166
517,824,16842752,11.857443871146696
518,825,16842752,12.028165875870185
519,826,16842752,11.850502614213074
520,827,16842752,11.878592969360495
521,828,16842752,11.777324662611006
522,830,16842752,11.91678293772871
523,832,16842752,12.019376293441804
524,834,16842752,11.915425620346298
525,836,16842752,11.533690472358932
526,837,16842752,12.089777050404123
527,838,16842752,11.6787968089643
528,839,16842752,12.129898338677107
529,840,16842752,11.36361471226213
530,841,16842752,12.206697221908167
531,842,16842752,11.831597285640024
532,843,16842752,12.096158804370855
533,844,16842752,11.52056296525312
534,846,16842752,11.72693516774645
535,848,16842752,11.379338255016327
536,850,16842752,11.666638035891909
537,852,16842752,11.69332665913621
538,854,16842752,11.845701887336524
539,856,16842752,11.3469559892235
540,857,16842752,12.025417750728975
541,858,16842752,11.147488816275851
542,859,16842752,11.98298182356306
543,860,16842752,11.07989774478034
544,862,16842752,11.28709641317962
545,864,16842752,11.87429684134682
546,866,16842752,11.784963751764131
547,868,16842752,11.791572503521492
548,870,16842752,11.202295430223563
549,872,16842752,10.971576274520789
550,873,16842752,11.986256486750376
551,874,16842752,11.419085876614021
552,875,16842752,12.134932231281107
553,876,16842752,11.617189251303444
554,878,16842752,12.012235643836926
555,880,16842752,11.641342129727226
556,882,16842752,11.184910010718227
557,884,16842752,11.249462832411059
558,886,16842752,11.248501168410767
559,888,16842752,11.543310497213335
560,889,16842752,11.819110146774415
561,890,16842752,11.542543152394925
