idx,og Index,data (B),bandwidth (GB/s)
0,0,16785408,12.010819134412003
1,1,16785408,12.070240838057764
2,2,16785408,12.057192154000758
3,3,16785408,12.267560053673382
4,4,16785408,11.856881698251286
5,6,16785408,12.301517260181209
6,8,16785408,11.658435925307256
7,10,16785408,12.304114246256628
8,12,16785408,11.988309807248948
9,14,16785408,12.15724288979729
10,16,16785408,11.45476246532434
11,17,16785408,12.327527504002585
12,18,16785408,11.974625967006908
13,19,16785408,12.322025387820542
14,20,16785408,11.2467381232039
15,22,16785408,12.313347828766098
16,24,16785408,12.066631202104869
17,26,16785408,12.11344577840258
18,28,16785408,11.674263621208043
19,30,16785408,12.074964391051003
20,32,16785408,11.882927865266376
21,33,16785408,12.105618139595263
22,34,16785408,11.769083365995222
23,35,16785408,12.226669735703485
24,36,16785408,11.313689264961713
25,38,16785408,11.769091617889988
26,40,16785408,12.08108271507907
27,42,16785408,12.123804983748645
28,44,16785408,11.870028993706244
29,46,16785408,12.139517526477029
30,48,16785408,11.537147888413026
31,49,16785408,12.324341469574998
32,50,16785408,11.959064444146792
33,51,16785408,12.151047201526572
34,52,16785408,11.86090328634782
35,54,16785408,12.065520979191884
36,56,16785408,11.94299944502156
37,58,16785408,12.189732551350316
38,60,16785408,12.09612673924887
39,62,16785408,12.211015181011078
40,64,16785408,12.028446207602281
41,65,16785408,12.207897957981414
42,66,16785408,11.881859598553683
43,67,16785408,12.326079102351335
44,68,16785408,11.951162691349234
45,70,16785408,11.913162713452286
46,72,16785408,12.114844636397493
47,74,16785408,11.923995169425304
48,76,16785408,11.671925685330864
49,78,16785408,12.209318716936172
50,80,16785408,11.9905021244496
51,81,16785408,12.211308335133884
52,82,16785408,11.924537309361227
53,83,16785408,11.781242696122918
54,84,16785408,11.895332125757923
55,86,16785408,11.855801361353357
56,88,16785408,11.927519960434426
57,90,16785408,11.892896390131368
58,92,16785408,12.036726720955514
59,94,16785408,11.932395399474945
60,96,16785408,11.987213949250005
61,97,16785408,12.037823017823577
62,98,16785408,11.913966008581253
63,99,16785408,11.935390470122785
64,100,16785408,11.937291804752327
65,102,16785408,11.97543757263745
66,104,16785408,12.156679384337275
67,106,16785408,12.137551231730844
68,108,16785408,12.110089836862262
69,110,16785408,11.957701327603845
70,112,16785408,12.027334381863064
71,113,16785408,12.327826279187448
72,114,16785408,11.922360577117722
73,115,16785408,12.328405763251888
74,116,16785408,11.992695243620485
75,118,16785408,11.929147490000654
76,120,16785408,12.052491146642618
77,122,16785408,12.10226653323374
78,124,16785408,12.091386618182238
79,126,16785408,12.079961137798888
80,128,16785408,11.82000232380456
81,129,16785408,12.171629950836076
82,130,16785408,11.9218271025515
83,131,16785408,12.076067664623702
84,132,16785408,11.92236904535291
85,134,16785408,12.138674750723892
86,136,16785408,11.928053944618506
87,138,16785408,12.15076572937569
88,140,16785408,11.997907118370755
89,142,16785408,12.080526247606985
90,144,16785408,11.846429960258787
91,145,16785408,10.208164873819568
92,146,16785408,11.471546676817788
93,147,16785408,11.863309164386767
94,148,16785408,12.02817038669789
95,150,16785408,11.930504103965223
96,152,16785408,11.981729110289903
97,154,16785408,12.149358564202931
98,156,16785408,12.049160240245156
99,158,16785408,11.850452826672013
100,160,16785408,12.022932191880903
101,161,16785408,12.22268113303721
102,162,16785408,11.621241881425366
103,163,16785408,11.593757964687038
104,164,16785408,11.654809392777318
105,166,16785408,11.678162263024644
106,168,16785408,11.806168318036447
107,170,16785408,11.510817573920146
108,172,16785408,12.0488921174812
109,174,16785408,12.131095031467087
110,176,16785408,11.637485033178333
111,177,16785408,12.258672516994482
112,178,16785408,11.784418828495063
113,179,16785408,11.998730460093842
114,180,16785408,11.508552528734686
115,182,16785408,11.586075511628245
116,184,16785408,12.119603171164927
117,186,16785408,11.759593100645938
118,188,16785408,11.770676196112861
119,190,16785408,12.110937386135785
120,192,16785408,11.83067428622981
121,193,16785408,12.324051911741815
122,194,16785408,11.921818635086156
123,195,16785408,12.331014115858027
124,196,16785408,12.043635862686516
125,198,16785408,12.078579015085444
126,200,16785408,12.073018950978334
127,202,16785408,12.016322042488854
128,204,16785408,12.110089836862262
129,206,16785408,11.808302825481958
130,208,16785408,11.949256935882067
131,209,16785408,11.692479588289833
132,210,16785408,11.468536934487105
133,211,16785408,12.277035151621538
134,212,16785408,11.791041274314699
135,214,16785408,12.321446503392812
136,216,16785408,12.21414288417039
137,218,16785408,11.881859598553683
138,220,16785408,11.909637951549492
139,222,16785408,11.727517389979907
140,224,16785408,11.840555296906082
141,225,16785408,12.08832146015596
142,226,16785408,11.659731662504646
143,227,16785408,12.326079102351335
144,228,16785408,11.830941123732355
145,230,16785408,11.90720480107258
146,232,16785408,12.152736308322304
147,234,16785408,11.716253681962224
148,236,16785408,12.03093778826781
149,238,16785408,12.157806447500702
150,240,16785408,11.825598328323046
151,241,16785408,12.32695715522629
152,242,16785408,11.953605329106054
153,243,16785408,12.325508887588363
154,244,16785408,11.819469647198991
155,246,16785408,12.210739806626156
156,248,16785408,12.258681469720662
157,250,16785408,11.676342572851024
158,252,16785408,12.006420435525266
159,254,16785408,11.4255624153399
160,256,16785408,12.078300890253836
161,257,16785408,12.329275091503254
162,258,16785408,11.730131764229034
163,259,16785408,12.32636875545255
164,260,16785408,11.826139889583104
165,262,16785408,12.08108271507907
166,264,16785408,12.0799698313955
167,266,16785408,12.049722471881076
168,268,16785408,12.04916888956525
169,270,16785408,11.683364504455719
170,272,16785408,11.471797559987124
171,273,16785408,12.147389080424833
172,274,16785408,11.960964806331141
173,275,16785408,12.088034181263534
174,276,16785408,11.887505922362344
175,278,16785408,12.114285054431765
176,280,16785408,11.784956624550308
177,282,16785408,11.997349711563134
178,284,16785408,12.224390215481957
179,286,16785408,11.922631566610624
180,287,16785408,12.24693779275927
181,288,16785408,11.695868814352716
182,289,16785408,12.325508887588363
183,290,16785408,11.76671555033382
184,291,16785408,12.330425328729891
185,292,16785408,11.853925895166809
186,294,16785408,12.224114237524388
187,296,16785408,11.456505922292857
188,298,16785408,12.193416223786791
189,300,16785408,12.112895066704095
190,302,16785408,11.424574796305837
191,304,16785408,11.816008419185325
192,305,16785408,12.329854711785174
193,306,16785408,11.90126972152344
194,307,16785408,12.326658422167323
195,308,16785408,11.784418828495063
196,310,16785408,11.786545478036901
197,312,16785408,11.881859598553683
198,314,16785408,11.908564877220963
199,316,16785408,12.178977643757056
200,318,16785408,11.686748447548768
201,320,16785408,12.070796358354068
202,321,16785408,12.038107915051823
203,322,16785408,11.699781902128493
204,323,16785408,11.711275413059237
205,324,16785408,11.70500342738716
206,326,16785408,12.047785156283645
207,328,16785408,12.07969164251027
208,330,16785408,12.14232762437174
209,332,16785408,12.029825501893479
210,334,16785408,11.930224277078677
211,336,16785408,11.95523998572671
212,337,16785408,12.054984041987813
213,338,16785408,11.783632907162534
214,339,16785408,12.134743343946006
215,340,16785408,11.655068355991364
216,342,16785408,11.481841893031646
217,344,16785408,12.182654817928716
218,346,16785408,12.038107915051823
219,348,16785408,11.944631202019828
220,350,16785408,11.82986550858728
221,352,16785408,11.561822735425638
222,353,16785408,11.275257373241244
223,354,16785408,11.108358961021429
224,355,16785408,11.860626714838178
225,356,16785408,11.74142218497764
226,358,16785408,11.960964806331141
227,360,16785408,12.210739806626156
228,362,16785408,11.81894534055479
229,364,16785408,12.064410960558206
230,366,16785408,11.724625725655317
231,368,16785408,12.211299451468813
232,369,16785408,12.33014454236332
233,370,16785408,11.353359220753044
234,371,16785408,11.857685797684612
235,372,16785408,11.582749609604926
236,374,16785408,11.877285888556477
237,376,16785408,11.876201830383517
238,378,16785408,11.855265453317804
239,380,16785408,12.271586977008058
240,382,16785408,11.971346492341663
241,384,16785408,11.978727837929647
242,385,16785408,12.243507488161615
243,386,16785408,11.721489923325093
244,387,16785408,12.123804983748645
245,388,16785408,11.996260773859722
246,390,16785408,11.759329471799312
247,392,16785408,11.23757469776111
248,394,16785408,11.804042883112226
249,396,16785408,11.851256054337236
250,398,16785408,12.210446679799459
251,400,16785408,11.478324376332182
252,401,16785408,11.799794308257827
253,402,16785408,11.47907794846474
254,403,16785408,11.659213333064754
255,404,16785408,11.4540042662314
256,406,16785408,12.305548468826702
257,408,16785408,11.623559555012344
258,410,16785408,12.131095031467087
259,412,16785408,11.46903844852997
260,414,16785408,12.116803580451888
261,416,16785408,11.545273774879169
262,417,16785408,12.040594863378256
263,418,16785408,11.620726968362067
264,419,16785408,12.133901230926709
265,420,16785408,11.707877253371556
266,422,16785408,11.706832062479556
267,424,16785408,11.731714067650191
268,426,16785408,12.10114974349214
269,428,16785408,11.978180759448867
270,430,16785408,11.524220872441614
271,432,16785408,12.024025977282056
272,433,16785408,10.291892687323529
273,434,16785408,11.365905549826282
274,435,16785408,11.586075511628245
275,436,16785408,11.804308520625918
276,438,16785408,11.145408017593182
277,440,16785408,11.57610353067748
278,442,16785408,11.578914402274199
279,444,16785408,12.238936736771187
280,446,16785408,12.164291118435356
281,448,16785408,12.302085257205174
282,449,16785408,12.140641409538688
283,450,16785408,11.365166762925742
284,451,16785408,12.000094368421466
285,452,16785408,11.406687275447982
286,454,16785408,11.68570702552553
287,456,16785408,11.613008744310386
288,458,16785408,12.286821688403235
289,460,16785408,11.647312544235813
290,462,16785408,11.521689559619261
291,464,16785408,12.12717729379423
292,465,16785408,11.996809505158824
293,466,16785408,11.531314469198021
294,467,16785408,10.35876048424871
295,468,16785408,11.64265108894464
296,470,16785408,12.007794682790175
297,472,16785408,11.303442061923983
298,474,16785408,12.12240405586931
299,476,16785408,11.573804741524643
300,478,16785408,12.053045034280512
301,480,16785408,12.05941840315197
302,481,16785408,11.980369373253128
303,482,16785408,12.076076352617175
304,483,16785408,12.117643321850068
305,484,16785408,11.46678198068217
306,486,16785408,11.929147490000654
307,488,16785408,12.285661587106407
308,490,16785408,12.210730923788269
309,492,16785408,11.847776187289837
310,494,16785408,12.110369427633914
311,496,16809984,11.650905007953257
312,498,16809984,12.129509515648959
313,500,16809984,12.009430376672105
314,502,16818176,11.511563805415676
315,503,16818176,12.278873083134505
316,504,16818176,12.112478213899893
317,505,16818176,12.037573900969123
318,506,16818176,11.494192479577142
319,508,16818176,12.218355966139423
320,510,16818176,11.943743271150955
321,512,16818176,12.20161990080937
322,514,16818176,11.428458044108304
323,516,16818176,12.325811964809729
324,518,16818176,11.480383276141353
325,519,16818176,10.74612247818914
326,520,16818176,11.868484063667703
327,521,16818176,11.236650687334013
328,522,16818176,11.758824269713198
329,524,16818176,12.195957058613658
330,526,16818176,11.979952416907668
331,528,16818176,12.028482415913077
332,530,16818176,11.788364001357001
333,532,16818176,12.220628798470003
334,534,16818176,11.806363070296195
335,535,16818176,12.269127177969786
336,536,16818176,12.098815309754631
337,537,16818176,11.275220986789398
338,538,16818176,11.877075182553918
339,540,16818176,12.01336041989891
340,542,16818176,11.962773388264683
341,544,16818176,12.110803547510896
342,546,16818176,11.787570824210174
343,548,16818176,12.122535946280241
344,550,16818176,11.851364111699594
345,551,16818176,11.216978023810318
346,552,16818176,11.604592384160567
347,553,16818176,11.47637228148685
348,554,16818176,11.734146021539587
349,556,16818176,12.120578968154446
350,558,16818176,12.112757369993403
351,560,16818176,11.903159208927347
352,562,16818176,11.93235423495523
353,564,16818176,12.00403127953155
354,566,16818176,12.127291239425325
355,567,16818176,12.267981617915238
356,568,16818176,12.05524510211513
357,569,16818176,11.898586447441032
358,570,16818176,11.880834037406787
359,572,16818176,12.075187322119374
360,574,16818176,11.970402425657305
361,576,16818176,11.632331428753234
362,578,16818176,11.685618598963327
363,580,16818176,11.862598995025914
364,582,16818176,11.979952416907668
365,583,16818176,11.948087672385132
366,584,16818176,12.053033365153352
367,585,16818176,11.798411882191095
368,586,16818176,11.700178582733477
369,588,16818176,12.045022617304888
370,590,16818176,12.038125341785271
371,592,16818176,12.060777997378182
372,594,16818176,11.937503726438264
373,596,16818176,12.065761947260732
374,598,16818176,11.912610603798283
375,599,16818176,10.822235478002804
376,600,16818176,11.761973932023524
377,601,16818176,11.267244203472858
378,602,16818176,11.77331186559328
379,604,16818176,12.182105284506912
380,608,16818176,12.026830893857785
381,610,16818176,11.944286148522924
382,612,16818176,11.646508819274638
383,614,16818176,11.85243318364666
384,615,16818176,11.058376412199987
385,616,16818176,11.667192279116167
386,617,16818176,10.996138511450432
387,620,16818176,11.878954312626961
388,622,16818176,12.003757112390762
389,624,16818176,12.11052448146644
390,628,16818176,12.078795034660278
391,630,16818176,11.948630944768887
392,631,16818176,11.253974616256063
393,632,16818176,11.713477601638672
394,633,16818176,9.826134509948727
395,636,16818176,11.785984790085804
396,638,16818176,11.930178894061715
397,640,16818176,12.104109510169419
398,642,16818176,11.85644392182076
399,644,16818176,12.093525738561677
400,646,16818176,12.018854926263975
401,647,16818176,10.696911297595923
402,648,16818176,11.637233221053913
403,649,16818176,10.857111501458638
404,650,16818176,11.542161596806826
405,652,16818176,11.787562562509944
406,654,16818176,11.347760901981689
407,656,16818176,11.70279199614782
408,658,16818176,11.756448747998146
409,660,16818176,11.70512958816721
410,662,16818176,11.961412083332148
411,663,16818176,12.153933763271771
412,664,16818176,11.762763668002302
413,665,16818176,10.563391304293209
414,666,16818176,11.438897284973699
415,668,16818176,11.707215475805132
416,670,16818176,11.761710710261982
417,672,16818176,11.700447197571163
418,674,16818176,11.763816814289902
419,676,16818176,12.076852152383031
420,678,16818176,11.939130805162353
421,679,16818176,11.54215367553148
422,680,16818176,11.395995519709011
423,681,16818176,10.90080488035685
424,682,16818176,11.29120848503484
425,684,16818176,11.625898564439833
426,686,16818176,11.430695084743805
427,688,16818176,11.936148166232792
428,690,16818176,11.656073875087673
429,692,16818176,11.605617396788857
430,694,16818176,12.071027253909513
431,695,16818176,10.411255775716485
432,696,16818176,10.85263466276394
433,697,16818176,10.24883606421513
434,698,16818176,11.614602008259554
435,700,16818176,11.761455725415052
436,702,16818176,11.813793854334595
437,704,16818176,12.10272455975343
438,706,16818176,12.150842848431779
439,708,16818176,11.611258204533577
440,710,16818176,11.82283784505763
441,711,16818176,11.12603151879524
442,712,16818176,11.450618448116332
443,713,16818176,10.486879690223136
444,714,16818176,11.439901015758439
445,716,16818176,12.089909222395068
446,718,16818176,12.049441022980963
447,720,16818176,12.001290171575693
448,722,16818176,11.65761705496102
449,724,16818176,11.652972592450936
450,726,16818176,11.945643557886543
451,727,16818176,12.120019947594326
452,728,16818176,12.081293944905623
453,729,16818176,11.546718131343402
454,730,16818176,11.903167633461578
455,732,16818176,12.089909222395068
456,734,16818176,12.047783741034818
457,736,16818176,11.618188512772758
458,738,16818176,11.964135003087394
459,740,16818176,12.153090630555115
460,742,16818176,11.647541250411205
461,743,16818176,12.271418940019672
462,744,16818176,12.052195536190965
463,745,16818176,11.889165688755673
464,746,16818176,12.018305249467621
465,748,16818176,11.932083332150874
466,750,16818176,11.721576102675973
467,752,16818176,11.586691909379763
468,754,16818176,11.815387382298743
469,756,16818176,11.289260614197014
470,758,16818176,12.005942229592502
471,759,16818176,12.007047944872962
472,760,16818176,11.452115500505595
473,761,16818176,11.01549803703757
474,762,16818176,11.948630944768887
475,764,16818176,12.178435603701718
476,766,16818176,12.014999660657324
477,768,16818176,11.760139850360115
478,770,16818176,12.070750017943013
479,772,16818176,11.642896751196433
480,774,16818176,11.419518630704182
481,775,16818176,11.383646112963467
482,776,16818176,11.686138264371618
483,777,16818176,10.274280966693546
484,778,16818176,11.501487080623773
485,780,16818176,12.185777177520093
486,782,16818176,11.770147891641308
487,784,16818176,12.084627434073436
488,786,16818176,12.058840906418409
489,788,16818176,12.041710938954363
490,790,16818176,11.994169146110815
491,791,16818176,11.881102618082146
492,792,16818176,11.715835787749006
493,793,16818176,11.971757255906624
494,794,16818176,11.877066794913352
495,796,16818176,11.680156789428104
496,798,16818176,11.463605920006435
497,800,16818176,12.129530315575083
498,802,16818176,12.107455603581085
499,804,16818176,12.154777012982883
500,806,16818176,11.730741223310018
501,807,16818176,10.811549427060733
502,808,16818176,11.91207060190104
503,809,16818176,10.479143184173157
504,810,16818176,11.733351937573472
505,812,16818176,11.826288006266784
506,814,16818176,11.737814938373278
507,816,16818176,11.991150398310504
508,818,16818176,11.918013316741735
509,820,16818176,11.671086708507632
510,822,16818176,11.813536606267332
511,823,16818176,10.693204627951202
512,824,16818176,11.446628221244714
513,825,16818176,10.203278386178336
514,826,16818176,12.101609861363256
515,828,16818176,11.922339016789495
516,830,16818176,12.12813079610127
517,832,16818176,11.696533152696649
518,834,16818176,11.423738277002037
519,836,16818176,11.696533152696649
520,838,16818176,11.901550341516714
521,839,16818176,11.627956306776266
522,840,16818176,11.843085338613772
523,841,16818176,11.832686522220001
524,842,16818176,11.963317997001022
525,844,16818176,11.588472284906135
526,846,16818176,12.057457650935307
527,848,16818176,12.083793889334357
528,850,16818176,12.02655568427225
529,852,16818176,11.604336159293343
530,854,16818176,11.612797558424163
531,855,16818176,10.84882630319372
532,856,16818176,10.837193777410056
533,857,16818176,9.8895484596328
534,858,16818176,11.490423039635328
535,860,16818176,12.096865982110232
536,862,16818176,11.972856683173251
537,864,16818176,11.585917656662797
538,866,16818176,11.868484063667703
539,868,16818176,11.776213669731709
540,870,16818176,11.91369075448335
541,871,16818176,12.193976305448007
542,872,16818176,11.534554263207022
543,873,16818176,11.174763822795004
544,874,16818176,11.831612685821138
545,876,16818176,11.939673263306158
546,878,16818176,11.175239044486528
547,880,16818176,12.192005033915864
548,882,16818176,12.121976745191768
549,884,16818176,11.72680688763148
550,886,16818176,11.793389936524767
551,887,16818176,11.793381666665498
552,888,16818176,12.033164192517164
553,889,16818176,11.612797558424163
554,890,16818176,12.059117595601458
555,892,16818176,11.893739621904958
556,894,16818176,12.097144419029535
557,896,16818176,11.606129971009132
558,898,16818176,11.983776681402183
559,900,16818176,12.155901527964497
560,902,16818176,11.348993764124518
561,903,16818176,12.129241638245439
