idx,og Index,data (B),bandwidth (GB/s)
0,0,16785408,12.008344469785637
1,1,16785408,12.174454937116497
2,2,16785408,11.959609777785378
3,3,16785408,12.20674383478063
4,4,16785408,11.212345370586227
5,6,16785408,11.04752326932924
6,8,16785408,11.383912349057468
7,10,16785408,11.374524124789422
8,12,16785408,11.33838915702122
9,14,16785408,11.610438280797695
10,16,16785408,11.40544716623825
11,17,16785408,12.321744983883388
12,18,16785408,11.048686762040044
13,19,16785408,12.323762367514515
14,20,16785408,11.134997870570489
15,22,16785408,11.039146090027524
16,24,16785408,11.176755576922309
17,26,16785408,11.52700660151451
18,28,16785408,11.592212653402303
19,30,16785408,11.674263621208043
20,32,16785408,11.403207902227596
21,33,16785408,12.324341469574998
22,34,16785408,11.306129679536099
23,35,16785408,12.33071518613528
24,36,16785408,11.453511881407687
25,38,16785408,11.27380336708116
26,40,16785408,11.109998557092156
27,42,16785408,11.238537773558175
28,44,16785408,11.639801119224447
29,46,16785408,11.582485857773152
30,48,16785408,11.532075015406642
31,49,16785408,12.322025387820542
32,50,16785408,11.561551972338359
33,51,16785408,12.319420836158988
34,52,16785408,11.728295843525908
35,54,16785408,12.034793581599438
36,56,16785408,11.801918213323715
37,58,16785408,12.104221411367668
38,60,16785408,11.972977464814853
39,62,16785408,11.622529363743437
40,64,16785408,11.576359008064289
41,65,16785408,12.329555838271892
42,66,16785408,11.683364504455719
43,67,16785408,12.321735938807569
44,68,16785408,11.746154863531682
45,70,16785408,11.892357123373564
46,72,16785408,11.96970742852579
47,74,16785408,11.567934203933898
48,76,16785408,11.918568017262865
49,78,16785408,11.714152320057616
50,80,16785408,11.47129580462162
51,81,16785408,12.330135484951503
52,82,16785408,11.638517877535397
53,83,16785408,12.323753319476637
54,84,16785408,11.673743998965142
55,86,16785408,12.062191535903281
56,88,16785408,11.882389502126886
57,90,16785408,11.793957509058677
58,92,16785408,11.707354634597827
59,94,16785408,11.811485255529309
60,96,16785408,11.669069479503328
61,97,16785408,12.331005057168632
62,98,16785408,11.69352221784882
63,99,16785408,12.327817225181185
64,100,16785408,11.620469528941085
65,102,16785408,11.777010515208007
66,104,16785408,11.929139012133527
67,106,16785408,11.574562921752754
68,108,16785408,11.681803345431263
69,110,16785408,11.73564297664884
70,112,16785408,11.593501718780326
71,113,16785408,12.327817225181185
72,114,16785408,11.57686201212489
73,115,16785408,12.32636875545255
74,116,16785408,11.646270057844857
75,118,16785408,11.788929561716724
76,120,16785408,12.059686994606501
77,122,16785408,11.372551251458376
78,124,16785408,11.836004978264166
79,126,16785408,11.592220659134842
80,128,16785408,11.689881968838883
81,129,16785408,12.329555838271892
82,130,16785408,11.501218955685925
83,131,16785408,12.324051911741815
84,132,16785408,11.502992350027858
85,134,16785408,11.959328583917392
86,136,16785408,12.021270363508364
87,138,16785408,11.614037248429185
88,140,16785408,12.024852907780181
89,142,16785408,11.788656336538468
90,144,16785408,11.636710520204124
91,145,16785408,12.326948102496614
92,146,16785408,11.69769459619369
93,147,16785408,12.328686470430968
94,148,16785408,11.607868954943752
95,150,16785408,11.94000904815153
96,152,16785408,11.659990844507364
97,154,16785408,11.877546428154444
98,156,16785408,11.888583624963081
99,158,16785408,11.717554123871468
100,160,16785408,11.42781046839608
101,161,16785408,12.207320869102302
102,162,16785408,11.529025513659349
103,163,16785408,12.211015181011078
104,164,16785408,11.704219901501464
105,166,16785408,12.130805715974766
106,168,16785408,12.098349950591496
107,170,16785408,11.867872114324742
108,172,16785408,11.859822216506974
109,174,16785408,11.918305674921115
110,176,16785408,11.582238101842556
111,177,16785408,12.328106959978143
112,178,16785408,11.653506658687258
113,179,16785408,12.328686470430968
114,180,16785408,11.733542856623576
115,182,16785408,11.977360235417018
116,184,16785408,11.841624502995431
117,186,16785408,12.13053394732506
118,188,16785408,12.014670640680965
119,190,16785408,12.009985539713556
120,192,16785408,11.63154973380094
121,193,16785408,11.977907238947196
122,194,16785408,11.71519881852806
123,195,16785408,11.804316821990868
124,196,16785408,11.79316202925982
125,198,16785408,12.017965293733125
126,200,16785408,11.912342618607784
127,202,16785408,11.814677717362613
128,204,16785408,11.751681146168877
129,206,16785408,11.96287429844098
130,208,16785408,11.482847293814874
131,209,16785408,12.251228377490694
132,210,16785408,11.593245484200486
133,211,16785408,12.333324516157475
134,212,16785408,11.537655421191515
135,214,16785408,12.073574727029477
136,216,16785408,11.733813533018855
137,218,16785408,11.693000879827295
138,220,16785408,11.61738114534835
139,222,16785408,11.697433735317587
140,224,16785408,11.422584524050132
141,225,16785408,12.328985301797557
142,226,16785408,11.842150823780239
143,227,16785408,12.320867673354101
144,228,16785408,11.415616265072531
145,230,16785408,12.021821385215345
146,232,16785408,11.587347214341039
147,234,16785408,11.857141343437618
148,236,16785408,11.511070177760619
149,238,16785408,11.769083365995222
150,240,16785408,11.364674291680123
151,241,16785408,12.220678910103565
152,242,16785408,11.650659459189326
153,243,16785408,12.261538056960527
154,244,16785408,11.610438280797695
155,246,16785408,12.02209691501225
156,248,16785408,11.490888976818885
157,250,16785408,11.807231322553621
158,252,16785408,11.405199176752848
159,254,16785408,11.799263451430885
160,256,16785408,11.278894030025251
161,257,16785408,12.32521022471943
162,258,16785408,11.834945131185961
163,259,16785408,12.324911576324116
164,260,16785408,11.528772121173825
165,262,16785408,11.802723173979935
166,264,16785408,11.544503546830962
167,266,16785408,11.949256935882067
168,268,16785408,11.11022652132271
169,270,16785408,11.643943319618995
170,272,16785408,11.256384498286604
171,273,16785408,12.331294941830908
172,274,16785408,11.640067487866123
173,275,16785408,12.324341469574998
174,276,16785408,11.84027967351672
175,278,16785408,12.167394928744365
176,280,16785408,11.715460472362027
177,282,16785408,12.180108845511937
178,284,16785408,12.037831650874793
179,286,16785408,12.021554477768007
180,288,16785408,11.748785778330264
181,289,16785408,12.04446549274551
182,290,16785408,11.964792928932924
183,291,16785408,12.020177079364897
184,292,16785408,12.161744003141617
185,294,16785408,12.197953031937004
186,296,16785408,12.277609870417129
187,298,16785408,11.755895138703584
188,300,16900096,11.894866866227146
189,301,16900096,12.184666585436018
190,302,16900096,11.988298352292235
191,303,16900096,12.174844177287778
192,304,16900096,11.979588032105113
193,305,16900096,12.235762251077864
194,306,16900096,11.937355375169878
195,307,16900096,12.155509075582382
196,308,16900096,12.12731745261762
197,309,16900096,11.950853279005582
198,310,16900096,11.996459289998205
199,311,16900096,11.779984595492264
200,312,16900096,11.973612857745076
201,313,16900096,11.744880407913364
202,314,16900096,12.003002864368968
203,315,16900096,12.217655206715769
204,316,16900096,11.923601895065843
205,317,16900096,12.143761196089013
206,318,16900096,11.793663698262574
207,319,16900096,12.214829441474675
208,320,16900096,11.806318789754409
209,321,16900096,12.142644365521695
210,322,16900096,11.80658272629912
211,323,16900096,12.127865730218954
212,324,16900096,12.035553821052984
213,325,16900096,12.201847739133198
214,326,16900096,11.889511189092104
215,327,16900096,12.20015650762758
216,328,16900096,11.900763686680726
217,329,16900096,12.087348837475432
218,330,16900096,11.731574764068265
219,331,16900096,11.88603258442376
220,332,16900096,11.997821946234444
221,333,16900096,11.821646641097546
222,334,16900096,12.177642695581559
223,335,16900096,11.898618711985362
224,336,16900096,12.011465553942191
225,337,16900096,11.443060601833858
226,338,16900096,11.804735418265944
227,339,16900096,11.26608474447465
228,340,16900096,11.879081478086734
229,341,16900096,11.680202031790703
230,342,16900096,11.886835158667248
231,343,16900096,11.900227370508306
232,344,16900096,11.673223435278906
233,345,16900096,11.851890085213904
234,346,16900096,11.53932018085904
235,347,16900096,11.766337187889235
236,348,16900096,11.92251677961247
237,349,16900096,11.930066207961756
238,350,16900096,11.781035707489002
239,351,16900096,12.189166128735616
240,352,16900096,11.949501270245982
241,353,16900096,12.19283325204824
242,354,16900096,11.816621066887988
243,355,16900096,12.131496056209425
244,356,16900096,11.840464311712115
245,357,16900096,12.244565327645319
246,358,16900096,12.056159985047593
247,359,16900096,12.182145833153125
248,360,16900096,12.013651411311677
249,361,16900096,11.276669171096126
250,362,16900096,11.904519253865601
251,363,16900096,11.90666635667238
252,364,16900096,11.926833175603624
253,365,16900096,11.870804238906656
254,366,16900096,12.175405532357578
255,367,16900096,12.148518751743195
256,368,16900096,11.839128869236514
257,369,16900096,12.151593503464262
258,370,16900096,11.948960552392359
259,371,16900096,12.051216666809283
260,372,16900096,11.921448680571181
261,373,16900096,12.225574309367486
262,374,16900096,11.995641844819865
263,375,16900096,12.21539448994874
264,376,16900096,11.819001069298816
265,377,16900096,12.097307612742329
266,378,16900096,11.808966937875404
267,379,16900096,12.081533445283474
268,380,16900096,11.92979672165401
269,381,16900096,12.260199121913567
270,382,16900096,12.089008935801289
271,383,16900096,12.108688113491437
272,384,16900096,12.161098378409495
273,385,16900096,12.238606573759997
274,386,16900096,11.775256911653328
275,387,16900096,11.657513845805768
276,388,16900096,11.966830118003605
277,389,16900096,12.017487122162397
278,390,16900096,11.939505905076523
279,391,16900096,12.118412712071018
280,392,16900096,11.78734632072978
281,393,16900096,12.151034341935354
282,394,16900096,11.931144274954129
283,395,16900096,12.169233472258625
284,396,16900096,11.838341016536457
285,397,16900096,12.236612751057303
286,398,16900096,12.00737774569513
287,399,16900096,12.170355199520678
288,400,16900096,11.950312438790352
289,401,16900096,12.035005287538855
290,402,16900096,11.881219413942848
291,403,16900096,12.120350814031127
292,404,16900096,11.840729777164336
293,405,16900096,12.224159431066258
294,406,16900096,11.936545964622821
295,407,16900096,12.197338830043678
296,408,16900096,11.952755059027886
297,409,16900096,12.132889564051242
298,410,16900096,11.875608972849982
299,411,16900096,11.661889919284999
300,412,16900096,11.96357713171682
301,413,16900096,11.856679517176302
302,414,16900096,12.107577724476082
303,415,16900096,11.774469333255302
304,416,16900096,11.851890085213904
305,417,16900096,12.226697602206292
306,418,16900096,11.950591303413182
307,419,16900096,12.13902480369369
308,420,16900096,11.784453117318794
309,421,16900096,12.197048331070757
310,422,16900096,12.012558383189907
311,423,16900096,12.18298889552101
312,424,16900096,11.774731847681819
313,425,16900096,12.151873103527619
314,426,16900096,11.778145600748221
315,427,16900096,12.063044395320137
316,428,16900096,12.042414711329283
317,429,16900096,12.200147700357412
318,430,16900096,11.909619887965643
319,431,16900096,12.191707377600281
320,432,16900096,12.059463521043645
321,433,16900096,12.025140227280975
322,434,16900096,11.743835737331496
323,435,16900096,12.090669490191589
324,436,16900096,11.948149567359255
325,437,16900096,11.707648514834338
326,438,16900096,11.833831541813451
327,439,16900096,12.038846072473442
328,440,16900096,11.849222653341391
329,441,16900096,12.029522701146357
330,442,16900096,12.088170183302827
331,443,16900096,12.082915498002755
332,444,16900096,11.977957847750389
333,445,16900096,11.805263161571222
334,446,16900096,12.095922265889765
335,447,16900096,12.213973139529758
336,448,16900096,11.797088439268027
337,449,16900096,12.129536977293492
338,450,16900096,11.751413812213475
339,451,16900096,12.175677457329536
340,452,16900096,11.89701048831671
341,453,16900096,12.174844177287778
342,454,16900096,11.824293397533983
343,455,16900096,12.080704365398486
344,456,16900096,11.986385245907453
345,457,16900096,12.079607736623162
346,458,16900096,12.008461298512309
347,459,16900096,12.07297177012335
348,460,16900096,12.013386675310569
349,461,16900096,11.769483782230965
350,462,16900096,11.997004315347631
351,463,16900096,11.656484658704896
352,464,16900096,12.069936672473059
353,465,16900096,12.137063292630115
354,466,16900096,11.798142605922633
355,467,16900096,12.216524743743584
356,468,16900096,11.701941472622114
357,469,16900096,12.062226460234848
358,470,16900096,11.6864050540303
359,471,16900096,12.153542234038499
360,472,16900096,11.860407307934427
361,473,16900096,12.094814216836602
362,474,16900096,11.705045607862422
363,475,16900096,12.048458768483407
364,476,16900096,12.285001697355977
365,477,16900096,12.159427171920372
366,478,16900096,11.820588270266073
367,479,16900096,12.016658264534207
368,480,16900096,11.892456214547135
369,481,16900096,11.982849732372726
370,482,16900096,11.594547163468466
371,483,16900096,12.17090737559999
372,484,16900096,12.076008394564541
373,485,16900096,12.186353524828652
374,486,16900096,11.847636059512652
375,487,16900096,12.13679308967962
376,488,16900096,11.984481248648208
377,489,16900096,12.073247763782891
378,490,16900096,11.879615889915247
379,491,16900096,12.165028835993308
380,492,16900096,11.988017725141143
381,493,16900096,11.708419067571743
382,494,16900096,11.908008689273904
383,495,16900096,11.988842636338614
384,496,16900096,11.816092307627768
385,497,16900096,11.484367079059565
386,498,16900096,11.926033607230664
387,499,16900096,12.185518782897109
388,500,16900096,11.779984595492264
389,501,16900096,12.1667015827421
390,502,16900096,11.764502451388168
391,503,16900096,12.13845807982176
392,504,16900096,11.801306236570854
393,505,16900096,12.100365156874258
394,506,16900096,11.839667986770472
395,507,16900096,11.276420871001815
396,508,16900096,11.63413670377178
397,509,16900096,12.164179501962453
398,510,16900096,11.89701048831671
399,511,16900096,12.225008318745388
400,512,16900096,11.928180059442935
401,513,16900096,12.19677545070077
402,514,16900096,11.953017129495706
403,515,16900096,12.13845807982176
404,516,16900096,12.034456804022476
405,517,16900096,12.057811526774254
406,518,16900096,11.761350334535443
407,519,16900096,11.871337906231012
408,520,16900096,11.935728234193196
409,521,16900096,11.562317458384445
410,522,16900096,11.885497595134428
411,523,16900096,11.886567621877068
412,524,16900096,11.995096943254996
413,525,16900096,12.263330672665264
414,526,16900096,12.100087922032918
415,527,16900096,12.178485134766063
416,528,16900096,11.935728234193196
417,529,16900096,12.125359722940692
418,530,16900096,11.903714289940433
419,531,16900096,12.159987106169755
420,532,16900096,11.862005650213199
421,533,16900096,12.13735094124981
422,534,16900096,12.261622355785276
423,535,16900096,12.332631812463331
424,536,16900096,11.974698809693358
425,537,16900096,12.107846628127156
426,538,16900096,11.854542087594046
427,539,16900096,12.004912751773201
428,540,16900096,11.939235992141343
429,541,16900096,12.095645234593349
430,542,16900096,11.981218660252143
431,543,16900096,12.154381341907996
432,544,16900096,11.736528243551717
433,545,16900096,12.08236263897319
434,546,16900096,11.803416266412068
435,547,16900096,11.543363525773998
436,548,16900096,11.877737310923662
437,549,16900096,12.074636548359717
438,550,16900096,11.632350967372473
439,551,16900096,11.789977738695114
440,552,16900096,11.980131525501585
441,553,16900096,12.109243384378162
442,554,16900096,11.886835158667248
443,555,16900096,12.161098378409495
444,556,16900096,11.881754018154373
445,557,16900096,12.004912751773201
446,558,16900096,11.673231498205855
447,559,16900096,12.184675370368769
448,560,16900096,11.586915772513798
449,561,16900096,12.108688113491437
450,562,16900096,11.671675559650211
451,563,16900096,12.159978356800519
452,564,16900096,12.090392699447422
453,565,16900096,12.12731745261762
454,566,16900096,11.981762301619655
455,567,16900096,12.174563519163662
456,568,16900096,11.686663656272971
457,569,16900096,11.948690211815844
458,570,16900096,11.608309029289863
459,571,16900096,11.249286772644552
460,572,16900096,11.59226464235323
461,573,16900096,11.576248686548475
462,574,16900096,11.746447762314412
463,575,16900096,11.712573688303156
464,576,16900096,11.70712946279821
465,577,16900096,11.436377896381591
466,578,16900096,11.754290813413169
467,579,16900096,11.435139781948685
468,580,16900096,11.743827576574185
469,581,16900096,11.649028483436071
470,582,16900096,11.768959232974625
471,583,16900096,11.581833757084409
472,584,16900096,11.546391977967696
473,585,16900096,12.063871052941533
474,586,16900096,11.744096887554038
475,587,16900096,11.983945858400203
476,588,16900096,12.030892879389205
477,589,16900096,11.772369639161505
478,590,16900096,11.674521709996856
479,591,16900096,12.01639339599835
480,592,16900096,11.817414294514863
481,593,16900096,12.113400857394543
482,594,16900096,11.930335706444815
483,595,16900096,12.131496056209425
484,596,16900096,11.922264455487174
485,597,16900096,12.173721622423724
486,598,16900096,11.831180514086375
487,599,16900096,12.135668825941748
488,600,16900096,11.991556289393635
489,601,16900096,11.977957847750389
490,602,16900096,11.83224078263177
491,603,16900096,11.750367979108104
492,604,16900096,11.906129508364184
493,605,16900096,11.874807913776737
494,606,16900096,11.872405384842889
495,607,16900096,11.697786293041034
496,608,16900096,12.123698323926162
497,609,16900096,12.175677457329536
498,610,16900096,11.888173023285914
499,611,16900096,12.136514183123879
500,612,16900096,11.825095929671166
501,613,16900096,12.125081341614694
502,614,16900096,11.985569173007518
503,615,16900096,12.186915941765621
504,616,16900096,12.014744638361796
505,617,16900096,12.127874433437723
506,618,16900096,11.925217316446192
507,619,16900096,12.13343834561149
508,620,16900096,11.960055058402245
509,621,16900096,12.199592867970837
510,622,16900096,12.116179883384223
511,623,16900096,12.213408222540043
512,624,16900096,11.943826172378822
513,625,16900096,12.137900126477637
514,626,16900096,12.052308146529562
515,627,16900096,11.64106863025352
516,628,16900096,12.000284028777795
517,629,16900096,12.11063178442338
518,630,16900096,11.678652305000439
519,631,16900096,11.864403971534017
520,632,16900096,11.862272082476716
521,633,16900096,12.038305813970053
522,634,16900096,11.742791252573499
523,635,16900096,12.214538108781047
524,636,16900096,11.813713476434572
525,637,16900096,12.092044982151814
526,638,16900096,11.834361889929855
527,639,16900096,12.147959873144393
528,640,16900096,11.968728510411673
529,641,16900096,12.185509996748145
530,642,16900096,12.175686229305054
531,643,16900096,12.329464772949454
532,644,16900096,12.027613535756682
533,645,16900096,12.07795021911707
534,646,16793600,11.074606668662614
535,647,16793600,11.486942645315612
536,648,16793600,11.903297052244202
537,649,16793600,11.511130638747934
538,650,16793600,11.64342294559132
539,651,16793600,11.487437667161453
540,652,16793600,11.980461551961158
541,653,16793600,12.125237904075922
542,654,16793600,11.585076873513803
543,655,16793600,12.224088885524365
544,656,16793600,12.113203518784063
545,657,16793600,12.194831487435989
546,658,16793600,11.557514352608244
547,659,16793600,12.087805306409482
548,660,16793600,11.800244105183054
549,661,16793600,12.15162908356271
550,662,16793600,11.285134166197954
551,663,16793600,11.927908091695226
552,664,16793600,12.048130536719192
553,665,16793600,12.197665871579357
554,666,16793600,11.646265221332161
555,667,16793600,12.13954228050138
556,668,16793600,11.901399018185607
557,669,16793600,12.18690221508791
558,670,16793600,12.061144579178553
559,671,16793600,12.116839301226864
560,672,16793600,12.072789280453534
