idx,og Index,data (B),bandwidth (GB/s)
0,0,33619968,12.009288811525785
1,1,33619968,12.204606317577808
2,4,33619968,12.23701244813278
3,6,33619968,12.302928992783642
4,9,33619968,12.345145933203224
5,11,33619968,12.342825423013847
6,13,33619968,12.003118957377106
7,15,33619968,12.101836946849776
8,17,33619968,11.847858132864587
9,19,33619968,12.03267507881016
10,21,33619968,12.157572706838044
11,23,33619968,12.294722552974871
12,25,33619968,12.13833381171845
13,27,33619968,12.301056384408012
14,29,33619968,12.136366392990501
15,31,33619968,11.828916133186263
16,33,33619968,12.160532199217341
17,35,33619968,12.129780841133634
18,37,33619968,12.166442300176309
19,39,33619968,11.963613783434187
20,41,33619968,12.318945948649514
21,43,33619968,12.178998850565137
22,45,33619968,12.293863849533494
23,47,33619968,12.049234897943386
24,49,33619968,11.944440181106591
25,51,33619968,12.011764537750276
26,53,33619968,12.222918320870454
27,55,33619968,12.3397810769534
28,57,33619968,12.280786833172183
29,59,33619968,12.219506450684323
30,61,33619968,11.804063593136503
31,63,33619968,11.839580226262271
32,64,33628160,12.169406832900522
33,65,33628160,12.054797663327607
34,67,33628160,12.316748581372087
35,69,33628160,12.21581065946828
36,71,33628160,12.167575093568454
37,73,33628160,12.346413121177331
38,75,33628160,11.45656589470012
39,77,33628160,12.316744070205253
40,79,33628160,11.943951636247526
41,81,33628160,12.105482935482849
42,83,33628160,12.067394505895154
43,85,33628160,12.225896614808287
44,87,33628160,12.342787846221663
45,89,33628160,12.347278970511777
46,91,33628160,11.975669862252674
47,93,33628160,12.046368338849962
48,95,33628160,11.621139120560278
49,97,33628160,11.994395888796628
50,99,33628160,12.347718741543297
51,101,33628160,12.141988520986606
52,103,33628160,12.075575766803313
53,105,33628160,12.075575766803313
54,107,33628160,11.78099669952891
55,109,33628160,11.9773034954056
56,111,33628160,12.207154735150507
57,113,33628160,12.329320493713096
58,115,33628160,12.16687512731054
59,117,33628160,12.274448769348918
60,119,33628160,11.855290558646358
61,121,33628160,12.016198278477322
62,123,33628160,12.091136851975964
63,124,33628160,12.128955561518774
64,127,33628160,12.274162040943851
65,128,33636352,12.156745050757385
66,129,33636352,12.005128073346297
67,131,33636352,12.34231097777556
68,133,33636352,12.346515144841357
69,135,33636352,12.345069639396053
70,137,33636352,12.27700869849594
71,139,33636352,11.389821325656222
72,141,33636352,12.022012247055557
73,143,33636352,11.786509290591741
74,145,33636352,12.094221470506172
75,147,33636352,12.111780379956503
76,149,33636352,12.179992301583825
77,151,33636352,12.037569593036634
78,153,33636352,12.27715657371783
79,155,33636352,12.247683465727528
80,157,33636352,12.21225191626802
81,159,33636352,12.13709330554441
82,161,33636352,11.846150974507939
83,163,33636352,12.191571969971555
84,165,33636352,12.03013439160403
85,167,33636352,12.112757369993403
86,169,33636352,12.254827501154024
87,171,33636352,12.051923482767355
88,173,33636352,11.934115403064888
89,175,33636352,11.786244969541306
90,177,33636352,11.684051762767183
91,179,33636352,12.163778962625232
92,181,33636352,11.940215770745713
93,183,33636352,12.268558846046808
94,185,33636352,12.339417746696812
95,187,33636352,12.172935226012664
96,189,33636352,12.14115880509955
97,191,33636352,12.099233104559646
98,192,33644544,12.21168366719163
99,193,33644544,12.302702133448006
100,195,33644544,12.350106874196792
101,197,33644544,12.199918194713986
102,199,33644544,11.998592031999532
103,201,33644544,12.273982197833227
104,203,33644544,11.377923991935075
105,205,33644544,11.921046841189803
106,207,33644544,11.515754669514411
107,209,33644544,11.968951808707624
108,211,33644544,11.803806809988938
109,213,33644544,12.195535746326518
110,215,33644544,12.183801354087903
111,217,33644544,12.116405500479694
112,219,33644544,12.117662312965155
113,221,33644544,12.033064283077874
114,223,33644544,12.04188463685951
115,225,33644544,12.04146658425365
116,227,33644544,12.201617184984029
117,229,33644544,12.099533633886777
118,231,33644544,12.250099855414458
119,233,33644544,11.858257276035562
120,235,33644544,11.83210110648965
121,237,33644544,12.176463946031241
122,239,33644544,12.287317869862594
123,241,33644544,12.130524700527555
124,243,33644544,12.039678336372667
125,245,33644544,11.885877076214781
126,247,33644544,12.170548429093522
127,249,33644544,12.0103795074339
128,251,33644544,12.348946425510563
129,253,33644544,12.347641181381949
130,255,33644544,11.89138454067248
131,256,33652736,12.189875655265743
132,257,33652736,12.249799887667729
133,259,33652736,12.149879413676077
134,261,33652736,12.28485850928335
135,263,33652736,12.141603239614271
136,265,33652736,12.225160058472564
137,267,33652736,10.630283832352731
138,269,33652736,11.986607435437866
139,271,33652736,12.119635021565074
140,273,33652736,11.987290586770241
141,275,33652736,11.88567650489922
142,277,33652736,11.349738808600279
143,279,33652736,12.167310234316473
144,281,33652736,12.181827132750488
145,283,33652736,12.254363145368263
146,285,33652736,12.349487400326822
147,287,33652736,12.239962319257005
148,289,33652736,11.752452361038113
149,291,33652736,11.719705544136689
150,293,33652736,12.34513833684704
151,295,33652736,12.346877594605532
152,297,33652736,12.347167518545845
153,299,33652736,11.79714486732709
154,301,33652736,12.174775770801437
155,303,33652736,12.344558693145824
156,305,33652736,12.345862968026998
157,307,33652736,11.368879504742278
158,309,33652736,11.736451081113035
159,311,33652736,12.11237643861018
160,313,33652736,12.12815662321908
161,315,33652736,12.062634573467301
162,317,33652736,11.754159988180433
163,319,33652736,11.743528236788906
164,320,33660928,12.070005536415557
165,321,33660928,12.325427725589204
166,323,33660928,12.220185258128868
167,325,33660928,12.26592640719931
168,327,33660928,12.252349212173097
169,329,33660928,11.860420163004049
170,331,33660928,10.369463726206881
171,333,33660928,12.347273825711627
172,335,33660928,12.236813252328783
173,337,33660928,12.333375957907927
174,339,33660928,12.344665590175003
175,341,33660928,11.87166400801862
176,343,33660928,11.673384515401438
177,345,33660928,12.303366482547684
178,347,33660928,11.871668194963673
179,349,33660928,11.773206585399038
180,351,33660928,11.924688774557682
181,353,33660928,11.836664164133364
182,355,33660928,12.095264651180171
183,357,33660928,11.937815837136649
184,359,33660928,12.107380802597223
185,361,33660928,11.81432990273277
186,363,33660928,11.760044411634926
187,365,33660928,11.870056439398615
188,367,33660928,11.744940149909596
189,369,33660928,11.92685207461624
190,371,33660928,12.077350318178818
191,373,33660928,12.141615086063858
192,375,33660928,12.063495385643115
193,377,33660928,11.890724219105458
194,379,33660928,12.172243710095957
195,381,33660928,11.67480967393981
196,383,33660928,11.839861668080072
197,384,33669120,12.13364585405513
198,385,33669120,12.30463820604138
199,387,33669120,12.275491542924144
200,389,33669120,12.34680051090027
201,391,33669120,12.348684319108319
202,393,33669120,12.028908720454359
203,395,33669120,11.464770872251124
204,397,33669120,11.22371716426891
205,399,33669120,11.799843902945062
206,401,33669120,11.747933764625548
207,403,33669120,12.020663085246117
208,405,33669120,12.315007620727354
209,407,33669120,11.762511926143329
210,409,33669120,12.291983679382223
211,411,33669120,12.28897325080125
212,413,33669120,12.27936411144425
213,415,33669120,12.002840544494735
214,417,33669120,11.942893951991646
215,419,33669120,11.780946349280773
216,421,33669120,12.109068623925008
217,423,33669120,12.183241905368439
218,425,33669120,12.070726915520629
219,427,33669120,12.083619251607123
220,429,33669120,11.752526580009153
221,431,33669120,11.87469139808307
222,433,33669120,12.347959709465123
223,435,33669120,12.344772437036164
224,437,33669120,11.696998479385195
225,439,33669120,12.292993467784541
226,441,33669120,12.059520500646153
227,443,33669120,11.98301904520567
228,445,33669120,11.697514586664276
229,447,33669120,11.707150171508843
230,448,33677312,12.191853106853758
231,449,33677312,12.086836929526106
232,450,33677312,12.042992049846518
233,451,33677312,12.147945505911414
234,452,33677312,12.174505533913477
235,453,33677312,12.035417256334823
236,454,33677312,12.113827267782993
237,455,33677312,12.31065537904894
238,456,33677312,11.879453430977442
239,457,33677312,12.279199061047585
240,458,33677312,11.761030862597984
241,459,33677312,12.347626631938029
242,460,33677312,11.960049960633095
243,461,33677312,12.332872034408823
244,462,33677312,11.891399692027713
245,463,33677312,11.337471212206395
246,464,33677312,12.088502944833547
247,465,33677312,12.14149868624844
248,466,33677312,11.989890377024569
249,467,33677312,11.711818961445983
250,468,33677312,11.993579646324982
251,469,33677312,12.066742149542087
252,470,33677312,12.080177457909704
253,471,33677312,12.185646203785016
254,472,33677312,12.110203013120913
255,473,33677312,11.79028561165763
256,474,33677312,12.0672912681091
257,475,33677312,12.204440698100441
258,476,33677312,12.082673899628306
259,477,33677312,11.94579552826942
260,478,33677312,12.13729792380859
261,479,33677312,12.187899721190398
262,480,33677312,12.080593459888368
263,481,33677312,12.204153222182601
264,482,33677312,12.176195806542118
265,483,33677312,11.249849093676833
266,484,33677312,11.92386950535006
267,485,33677312,11.945528582171082
268,486,33677312,12.152574617278818
269,487,33677312,12.281343995518847
270,488,33677312,12.174928058074126
271,489,33677312,12.242199700463845
272,490,33677312,12.131142060960252
273,491,33677312,12.10017792417958
274,492,33677312,12.157909481327023
275,493,33677312,11.733891178984345
276,494,33677312,12.092669993134493
277,495,33677312,11.817293153669004
278,496,33677312,12.12429401311602
279,497,33677312,11.914824845524773
280,498,33677312,12.124852747607239
281,499,33677312,11.69256515011112
282,500,33677312,12.16394755937712
283,501,33677312,11.848295932698559
284,502,33677312,12.148927143908457
285,503,33677312,11.758932421594167
286,504,33677312,12.133100067155295
287,505,33677312,11.987978315974651
288,506,33677312,12.086420497449016
289,507,33677312,12.197792414526239
290,508,33677312,11.90188922231132
291,509,33677312,12.34719656304044
292,510,33677312,11.936988370786496
293,511,33677312,12.345313666744502
294,512,33562624,9.895992289041812
295,513,33562624,12.340184492659892
296,514,33562624,11.446714016524133
297,515,33562624,12.343088980608965
298,516,33562624,11.506746142490103
299,517,33562624,12.346576171425944
300,518,33562624,11.54207541654487
301,519,33562624,12.195685477658495
302,520,33562624,11.43137250894922
303,521,33562624,12.12505021603734
304,522,33562624,11.427258554197095
305,523,33562624,11.97621501263185
306,524,33562624,11.522294721100561
307,525,33562624,12.11511054174062
308,526,33562624,11.414328828041413
309,527,33562624,11.989901548312561
310,528,33562624,11.97621501263185
311,529,33562624,12.222689014424267
312,530,33562624,11.515336913925125
313,531,33562624,12.081612906012689
314,532,33562624,11.979771616871453
315,533,33562624,12.34759363994127
316,534,33562624,11.948105985226945
317,535,33562624,12.306592055535205
318,536,33562624,11.949058835969266
319,537,33562624,12.313093525602152
320,538,33562624,11.829250575467784
321,539,33562624,12.306880863966429
322,540,33562624,11.991139540799557
323,541,33562624,12.199661882054196
324,542,33562624,11.974843377655105
325,543,33562624,12.260843294489664
326,544,33562624,12.023443164655273
327,545,33562624,12.153576460696067
328,546,33562624,12.014077852010733
329,547,33562624,12.347884376033585
330,548,33562624,11.926096672715715
331,549,33562624,12.345849510857871
332,550,33562624,12.055505587627621
333,551,33562624,12.157093884836842
334,552,33562624,11.93981324689148
335,553,33562624,12.127433607853453
336,554,33562624,12.018345522621084
337,555,33562624,12.227538300060587
338,556,33562624,12.033375305830353
339,557,33562624,12.138240714754838
340,558,33562624,11.95328468817045
341,559,33562624,12.345118394995248
342,560,33562624,12.10993052127804
343,561,33562624,12.221549612116304
344,562,33562624,12.043181261184195
345,563,33562624,12.191153677528513
346,564,33562624,12.154417111617787
347,565,33562624,12.229534348421927
348,566,33562624,12.035999024572174
349,567,33562624,12.09777816226192
350,568,33562624,12.09875939734432
351,569,33562624,12.131361237620183
352,570,33562624,12.042213340767635
353,571,33562624,12.251247751892937
354,572,33562624,12.074658439080268
355,573,33562624,12.17106479424857
356,574,33562624,11.973202955965531
357,575,33562624,12.081334573529116
358,576,33570816,11.942319677846237
359,577,33570816,12.208031140086753
360,578,33570816,12.13979847773448
361,579,33570816,12.281634409105676
362,580,33570816,11.932942545184657
363,581,33570816,12.190582432043785
364,582,33570816,11.926430950414325
365,583,33570816,11.73092286258311
366,584,33570816,11.800462094441475
367,585,33570816,12.213716284850266
368,586,33570816,11.812154365658394
369,587,33570816,11.670107938052944
370,588,33570816,11.859022016549945
371,589,33570816,12.22453711205699
372,590,33570816,11.763281024154962
373,591,33570816,11.881855393158808
374,592,33570816,12.10003315984487
375,593,33570816,12.004497017722025
376,594,33570816,11.909781606096297
377,595,33570816,12.119603171164927
378,596,33570816,12.081087062683016
379,597,33570816,11.870830679817496
380,598,33570816,12.025684259847335
381,599,33570816,11.55544724379852
382,600,33570816,12.067880447129806
383,601,33570816,12.23779904323662
384,602,33570816,12.050552940737273
385,603,33570816,12.100172721531944
386,604,33570816,12.131941139290596
387,605,33570816,12.142608705716906
388,606,33570816,12.090829201109866
389,607,33570816,12.181669011378354
390,608,33570816,12.094732200243834
391,609,33570816,12.073856976645908
392,610,33570816,12.158374460863264
393,611,33570816,12.159779310984321
394,612,33570816,12.082474108070912
395,613,33570816,11.903155979320143
396,614,33570816,12.159501838369124
397,615,33570816,12.226384749184927
398,616,33570816,12.083726635816777
399,617,33570816,12.3452299918914
400,618,33570816,12.121003451712136
401,619,33570816,12.344934912112967
402,620,33570816,12.118343195266272
403,621,33570816,12.049307280375576
404,622,33570816,12.191857475311817
405,623,33570816,12.215991825636875
406,624,33570816,12.196960316699075
407,625,33570816,12.264552796757881
408,626,33570816,12.116383753396258
409,627,33570816,12.006283028099098
410,628,33570816,12.211019622635195
411,629,33570816,12.066353627222355
412,630,33570816,12.122964388168102
413,631,33570816,12.307140937717556
414,632,33570816,12.181381698689943
415,633,33570816,12.291279774141783
416,634,33570816,12.139658000480223
417,635,33570816,12.096684644898689
418,636,33570816,12.17022236127027
419,637,33570816,12.059552697383712
420,638,33570816,12.122684215543813
421,639,33570816,12.114005282833677
422,640,33579008,11.993423780754593
423,641,33579008,11.682706682684763
424,642,33579008,12.149794970675723
425,643,33579008,12.317219967544377
426,644,33579008,11.899579887769258
427,645,33579008,12.182378275108576
428,646,33579008,12.013612490519055
429,647,33579008,11.912146917507897
430,648,33579008,11.74731951693931
431,649,33579008,12.163310488720171
432,650,33579008,11.780946510186189
433,651,33579008,11.97672779567484
434,652,33579008,11.804403896904223
435,653,33579008,11.512994845399707
436,654,33579008,11.753894598964381
437,655,33579008,12.201355197102401
438,656,33579008,12.02972195761386
439,657,33579008,12.18888760228641
440,658,33579008,11.939661327439419
441,659,33579008,12.314333566938522
442,660,33579008,12.133919353667222
443,661,33579008,12.346639761619715
444,662,33579008,12.140793983657531
445,663,33579008,12.075687090212867
446,664,33579008,12.086814544344586
447,665,33579008,12.294423153740848
448,666,33579008,12.105499043932939
449,667,33579008,11.953534335210072
450,668,33579008,12.086814544344586
451,669,33579008,11.729850557009701
452,670,33579008,12.201501504884197
453,671,33579008,12.052939740699795
454,672,33579008,12.092943389811952
455,673,33579008,12.069159260100582
456,674,33579008,12.163592473563872
457,675,33579008,12.245213449711274
458,676,33579008,12.095313017794107
459,677,33579008,12.326774155299182
460,678,33579008,12.129426757482323
461,679,33579008,11.87668818068379
462,680,33579008,12.18619370160581
463,681,33579008,12.255367356182227
464,682,33579008,12.080274681471376
465,683,33579008,11.699248654703442
466,684,33579008,12.151619636555235
467,685,33579008,11.74757843349565
468,686,33579008,12.213857208589236
469,687,33579008,11.9124131508696
470,688,33579008,12.199090091016329
471,689,33579008,12.291111009434566
472,690,33579008,12.130693113659426
473,691,33579008,12.217127842303437
474,692,33579008,12.210157638591928
475,693,33579008,11.925007315735792
476,694,33579008,12.188321297706183
477,695,33579008,12.212147044704034
478,696,33579008,12.181666739221917
479,697,33579008,12.040492821388105
480,698,33579008,12.168670437447272
481,699,33579008,12.1320956158774
482,700,33579008,12.208594988438213
483,701,33579008,11.873861774689114
484,702,33579008,12.179121800619201
485,703,33579008,12.274146294746854
486,704,33587200,11.99333402130842
487,705,33587200,11.52010097649484
488,706,33587200,12.22038846537838
489,707,33587200,12.286338347655176
490,708,33587200,11.970359219121098
491,709,33587200,12.281445901553026
492,710,33587200,11.971724556806095
493,711,33587200,12.345153544390941
494,712,33587200,11.957808451909688
495,713,33587200,12.238061247876196
496,714,33587200,11.773906721431523
497,715,33587200,12.186619217495045
498,716,33587200,11.871116780315843
499,717,33587200,11.895063969188543
500,718,33587200,11.832841108581974
501,719,33587200,11.742425434276965
502,720,33587200,12.081413718781384
503,721,33587200,11.689981870142327
504,722,33587200,11.882006333824831
505,723,33587200,11.899918971766958
506,724,33587200,12.118658011032181
507,725,33587200,12.236063877651018
508,726,33587200,12.135471917354847
509,727,33587200,12.108452324987814
510,728,33587200,12.025492302184032
511,729,33587200,11.496127135380835
512,730,33587200,12.043015687703123
513,731,33587200,12.150081754908912
514,732,33587200,12.052142510614233
515,733,33587200,12.204903953315894
516,734,33587200,12.204473772183544
517,735,33587200,12.147273832648764
518,736,33587200,11.98293208511124
519,737,33587200,12.189591347898672
520,738,33587200,12.156695824900032
521,739,33587200,12.345298746952471
522,740,33587200,12.120337304737683
523,741,33587200,12.236777149310964
524,742,33587200,12.197382373876033
525,743,33587200,12.063639837825878
526,744,33587200,12.177570228996563
527,745,33587200,11.721182210654776
528,746,33587200,12.111526201156803
529,747,33587200,12.267813462554848
530,748,33587200,12.120481640757083
531,749,33587200,12.186906637029587
532,750,33587200,12.119637542470981
533,751,33587200,12.247629125897088
534,752,33587200,12.179689879752251
535,753,33587200,12.102727899059374
536,754,33587200,12.137581322972947
537,755,33587200,11.751492763429972
538,756,33587200,12.167124073714502
539,757,33587200,11.642264631775321
540,758,33587200,12.107618630488581
541,759,33587200,11.814327587716999
542,760,33587200,12.126638803280061
543,761,33587200,12.287628374166244
544,762,33587200,12.184501574612623
545,763,33587200,12.168252523700906
546,764,33587200,12.174039116755832
547,765,33587200,12.227938454010708
548,766,33587200,12.159794247383925
549,767,33587200,12.115720366495923
550,768,33595392,12.003395711913289
551,769,33595392,12.083382458780482
552,770,33595392,12.063670444262508
553,771,33595392,12.137309136312007
554,772,33595392,11.992559309733547
555,773,33595392,12.256475663180876
556,774,33595392,11.9892724118623
557,775,33595392,12.016447622563117
558,776,33595392,11.840265596667354
559,777,33595392,12.345841214380027
560,778,33595392,11.877639292377435
