idx,og Index,data (B),bandwidth (GB/s)
0,0,16875520,12.269687788783196
1,2,16875520,11.501657891598084
2,3,16875520,11.911893526835346
3,4,16875520,11.681026098934376
4,5,16875520,11.187391485646438
5,6,16875520,11.447479902236447
6,8,16875520,11.617202429796397
7,10,16875520,11.462416658063043
8,11,16875520,11.242005098883295
9,12,16875520,11.789652532094811
10,13,16875520,11.584537401628856
11,14,16875520,11.463911699011451
12,16,16875520,11.622322988005443
13,18,16875520,11.382505139675054
14,19,16875520,11.51623346490438
15,20,16875520,11.572843231381155
16,21,16875520,10.813689869727087
17,22,16875520,11.871135844519996
18,24,16875520,11.401199740837603
19,26,16875520,12.184077507839085
20,27,16875520,11.954557787082958
21,28,16875520,11.4731397429552
22,29,16875520,11.920770817439463
23,32,16875520,12.12664207639082
24,34,16875520,11.862323959750178
25,35,16875520,10.841924155769396
26,36,16875520,11.239848648029406
27,37,16875520,11.055815900623234
28,38,16875520,11.732734119060465
29,40,16875520,12.133338222468597
30,42,16875520,11.490388543601531
31,43,16875520,11.546491069620288
32,44,16875520,11.897918651060838
33,45,16875520,11.381760473088951
34,46,16875520,12.031195304306786
35,48,16875520,11.539669254208174
36,50,16875520,11.516736458782614
37,51,16875520,11.742138749881713
38,52,16875520,11.432845366300466
39,53,16875520,11.277103474176396
40,54,16875520,11.729610741837659
41,58,16875520,11.949140361075964
42,59,16875520,11.162999913344715
43,60,16875520,11.751558469774878
44,61,16875520,11.380294455623952
45,64,16875520,11.631807930477361
46,66,16875520,11.558385341610823
47,67,16875520,10.57261392071191
48,68,16875520,11.453446821333772
49,69,16875520,11.071366948575987
50,72,16875520,11.728819967639879
51,74,16875520,11.431358416742986
52,75,16875520,12.12831541991426
53,76,16875520,11.892007689575664
54,77,16875520,11.962964512028877
55,78,16875520,12.079421809001415
56,80,16875520,11.645172353591054
57,82,16875520,11.527057524904508
58,83,16875520,11.900863746890003
59,84,16875520,11.480125199237811
60,85,16875520,11.73718148009818
61,86,16875520,11.491632646807467
62,88,16875520,11.545227162020897
63,90,16875520,11.376611889827903
64,91,16875520,11.368020839718877
65,92,16875520,11.349434798749616
66,93,16875520,11.234580804937071
67,94,16875520,11.650566942267437
68,96,16875520,11.768604631701098
69,98,16875520,11.490889282309682
70,99,16875520,11.29618659185642
71,100,16875520,11.511951937120415
72,101,16875520,11.984160800822638
73,102,16875520,11.575629574805072
74,104,16875520,11.644907174835907
75,106,16875520,11.449973131557664
76,107,16875520,11.271318833910296
77,108,16875520,11.370724739239414
78,109,16875520,10.562237986333042
79,110,16875520,11.319220349419433
80,112,16875520,11.698387093419921
81,114,16875520,11.520761992146324
82,115,16875520,11.34967905778036
83,116,16875520,11.681276753625756
84,117,16875520,11.153556106772099
85,118,16875520,11.530586029528322
86,120,16875520,11.709808318946614
87,122,16875520,11.34479587391564
88,123,16875520,11.345520455931323
89,124,16875520,11.315820001193572
90,125,16875520,11.351144832781769
91,126,16875520,11.297880616379983
92,128,16875520,11.626422685810345
93,130,16875520,11.586573583288933
94,131,16875520,11.51522760894605
95,132,16875520,11.423929466940336
96,133,16875520,11.562693562090608
97,134,16875520,11.54168969234052
98,136,16875520,11.44400206968996
99,138,16875520,11.554080330392011
100,139,16875520,11.865526767451982
101,140,16875520,11.635400865991892
102,141,16875520,11.263134078223477
103,142,16875520,11.5715735483694
104,144,16875520,11.790443293033967
105,146,16875520,11.327494455572083
106,147,16875520,11.929130073346867
107,148,16875520,11.44624534024993
108,149,16875520,11.702540638637373
109,150,16875520,11.525789995990856
110,152,16875520,11.738749060059503
111,154,16875520,11.412310172636728
112,155,16875520,11.093958827067768
113,156,16875520,11.377340541794172
114,157,16875520,11.643878716956554
115,158,16875520,11.397757665811158
116,160,16875520,11.350648564481467
117,162,16875520,11.426404710445206
118,163,16875520,11.80205331915965
119,164,16875520,11.490388543601531
120,165,16875520,10.951125416535527
121,166,16875520,11.322630338749242
122,168,16875520,11.74004752920486
123,170,16875520,11.222395420472743
124,171,16875520,11.966764974305045
125,172,16875520,11.45743600328063
126,173,16875520,11.94535108340111
127,174,16875520,11.524790340645232
128,176,16875520,11.764412268073938
129,178,16875520,11.379557751751893
130,179,16875520,11.644392923187326
131,180,16875520,11.413545144168078
132,181,16875520,10.306875863842272
133,182,16875520,11.351625872702922
134,184,16875520,11.65391393703006
135,186,16875520,11.478376085990963
136,187,16875520,11.538659300385635
137,188,16875520,11.499910047919926
138,189,16875520,10.855768432848446
139,190,16875520,11.514473332278016
140,192,16875520,11.69760052348182
141,194,16875520,11.285799123647083
142,195,16875520,11.504425744032199
143,196,16875520,11.261450456817089
144,197,16875520,11.06811386131146
145,198,16875520,11.215466565647503
146,200,16875520,11.843401025203384
147,202,16875520,11.334790858562961
148,203,16875520,12.086619897365377
149,204,16875520,11.135421691199031
150,205,16875520,11.80813130097457
151,206,16875520,11.557878703201451
152,208,16875520,11.386429683288204
153,210,16875520,11.295460736849645
154,211,16875520,11.562440048454551
155,212,16875520,11.611319363024368
156,213,16875520,11.582247552532024
157,214,16875520,11.42936867806069
158,216,16875520,11.411322387817478
159,218,16875520,11.4703947189551
160,219,16875520,12.00271697576415
161,220,16875520,11.601102122300377
162,221,16875520,11.924283310828047
163,222,16875520,11.539921770289121
164,224,16875520,11.467892589081544
165,226,16875520,11.45693817585366
166,227,16875520,10.725934287483046
167,228,16875520,11.148133149859984
168,229,16875520,10.741664407008377
169,230,16875520,11.222387957468626
170,232,16875520,11.512965075345344
171,234,16875520,11.432837620769387
172,235,16875520,11.655459352535873
173,236,16875520,11.409594175776032
174,237,16875520,11.29619415333701
175,238,16875520,11.341616434655148
176,240,16875520,11.727255038220987
177,242,16875520,11.58733733596269
178,243,16875520,12.171423172377382
179,244,16875520,11.399721010980548
180,245,16875520,11.89952946303221
181,246,16875520,11.559398751691901
182,248,16875520,11.673519532049827
183,250,16883712,12.206631341732946
184,251,16883712,12.211999412679894
185,252,16883712,11.747315688402772
186,253,16883712,11.948443328495088
187,254,16883712,11.718363038081165
188,256,16883712,11.946820035393872
189,258,16883712,11.598066955867655
190,259,16883712,11.569059569613227
191,260,16883712,11.521564404555477
192,261,16883712,11.482948374139394
193,262,16883712,11.255860527349128
194,264,16883712,11.671693793240754
195,266,16883712,11.477960091585949
196,267,16883712,11.46200177051709
197,268,16883712,11.886790539969699
198,269,16883712,11.556903868795006
199,270,16883712,11.555385213453862
200,272,16883712,11.544000114867632
201,274,16883712,11.482956183926307
202,275,16883712,10.881190377677324
203,276,16883712,11.34054454886915
204,277,16883712,11.463495977795038
205,278,16883712,12.00553783010637
206,280,16883712,11.825248919992603
207,282,16883712,11.868616309714028
208,283,16883712,11.263316877918612
209,284,16883712,11.09887727458883
210,285,16883712,10.565877341363636
211,286,16883712,11.960352497803973
212,288,16883712,12.05491204633552
213,290,16883712,11.770910908635843
214,291,16883712,11.713411960593866
215,292,16883712,11.494956743394066
216,293,16883712,10.984726909331517
217,296,16883712,11.841172411084491
218,298,16883712,11.39171879976034
219,299,16883712,11.780364050437898
220,300,16883712,11.981537727868833
221,301,16883712,11.804612295352467
222,302,16883712,11.89913052548342
223,304,16883712,11.262107272000806
224,306,16883712,11.649016674854144
225,307,16883712,11.79380193143915
226,308,16883712,11.66395304494885
227,309,16883712,10.420018329769212
228,314,16883712,10.005637007976674
229,315,16883712,9.090406507041632
230,316,16883712,10.632743412990003
231,317,16883712,9.640712319412
232,319,16883712,9.901796710605026
233,321,16883712,9.809199564028138
234,322,16883712,9.714381718883415
235,323,16883712,10.155078708615724
236,324,16883712,9.72440259621327
237,325,16883712,8.666776175301422
238,327,16883712,10.059241147073333
239,328,16883712,10.867294960305761
240,330,16883712,9.795904726761309
241,331,16883712,9.73642577578735
242,332,16883712,10.177605991411218
243,333,16883712,9.808470145351878
244,335,16883712,9.66614587060632
245,337,16883712,9.807376220715037
246,338,16883712,10.582407106203826
247,339,16883712,9.22438351449325
248,340,16883712,9.720824936955195
249,341,16883712,9.276117545643793
250,343,16883712,9.776845089605237
251,345,16883712,9.570755299887647
252,346,16883712,9.760019885714946
253,347,16883712,9.375017074549426
254,348,16883712,9.516727551689327
255,349,16883712,8.858716177821664
256,351,16883712,9.611564131699575
257,353,16883712,9.755869135992224
258,354,16883712,10.479630661821938
259,355,16883712,10.315104823756181
260,356,16883712,9.633319392435514
261,357,16883712,9.93236651316455
262,359,16883712,9.993318733353062
263,360,16883712,11.713151921145084
264,362,16883712,11.410689086534562
265,363,16883712,11.8627372728448
266,364,16883712,11.558169719871847
267,365,16883712,11.447329453306791
268,366,16883712,11.625666968950181
269,368,16883712,11.82816501986807
270,370,16883712,11.518050984822437
271,371,16883712,11.068833268429685
272,372,16883712,11.498965116350345
273,373,16883712,10.624393227557443
274,374,16883712,11.451794002559808
275,376,16883712,11.653648004682521
276,378,16883712,11.569321178166748
277,379,16883712,10.96532199979607
278,380,16883712,11.386064578781257
279,381,16883712,10.591761070285475
280,382,16883712,11.1968676884878
281,384,16883712,11.75464373437004
282,386,16883712,11.600609035492258
283,387,16883712,12.062904791878477
284,388,16883712,11.556397605997054
285,389,16883712,9.551355818964664
286,390,16883712,11.296104971802745
287,392,16883712,11.516291150775679
288,394,16883712,11.61107596155433
289,395,16883712,11.81757617966046
290,396,16883712,11.436163929273937
291,397,16883712,11.37967960573496
292,398,16883712,11.61337610811822
293,400,16883712,11.695755540407987
294,402,16883712,11.605193969650292
295,403,16883712,12.139219464496275
296,404,16883712,11.599078872883359
297,405,16883712,11.403036404024496
298,406,16883712,11.541735254710016
299,408,16883712,11.73529657082168
300,410,16883712,11.555385213453862
301,411,16883712,11.630015374696226
302,412,16883712,11.53391372780483
303,413,16883712,10.953711927513789
304,414,16883712,11.235965285306149
305,416,16883712,11.573127731562467
306,418,16883712,11.447329453306791
307,419,16883712,11.410928157371306
308,420,16883712,11.513024313870963
309,421,16883712,10.870653499413448
310,422,16883712,11.393194737609251
311,424,16883712,11.53794932072274
312,426,16883712,11.517548120214583
313,427,16883712,10.903452043754044
314,428,16883712,11.310884466763493
315,429,16883712,10.737911375740454
316,430,16883712,11.344438315076252
317,432,16883712,11.736348893320718
318,434,16883712,11.587870002800244
319,435,16883712,10.330049613717835
320,436,16883712,11.462990082755727
321,437,16883712,11.587870002800244
322,438,16883712,11.222104280145297
323,440,16883712,11.772741218406065
324,442,16883712,11.43541259014075
325,443,16883712,11.825779013016703
326,444,16883712,11.362524833233731
327,445,16883712,9.104524244903153
328,446,16883712,10.911125544063049
329,448,16883712,11.309429776379742
330,450,16883712,11.391226905452013
331,451,16883712,11.42625728872839
332,452,16883712,11.398363533255921
333,453,16883712,11.714460361722397
334,454,16883712,11.393187049442174
335,456,16883712,11.753342666183086
336,458,16883712,11.49521501130205
337,459,16883712,10.583043899320215
338,460,16883712,11.253947347371902
339,461,16883712,10.297388831863168
340,462,16883712,11.19210997144916
341,464,16883712,11.534922361351748
342,466,16883712,11.440379455210733
343,467,16883712,10.765517619558329
344,468,16883712,11.41365118681283
345,469,16883712,10.483170387332558
346,470,16883712,11.511014873761201
347,472,16883712,11.723562512845866
348,474,16883712,11.440131397069585
349,475,16883712,12.05684035982613
350,476,16883712,11.36545432637128
351,477,16883712,11.987262783543288
352,478,16883712,11.266676587347929
353,480,16883712,11.189499028755595
354,482,16883712,11.567545643392327
355,483,16883712,12.09636851996071
356,484,16883712,11.628221163117441
357,485,16883712,10.763760622732807
358,486,16883712,11.318884369630494
359,488,16883712,11.825248919992603
360,490,16883712,11.557916527472768
361,491,16883712,11.252019819993935
362,492,16883712,11.466236369859665
363,493,16883712,11.529873083187363
364,494,16883712,11.608776725944587
365,496,16883712,11.508504059809251
366,498,16883712,11.652883903299568
367,499,16883712,12.001441562346505
368,500,16883712,11.544260591308152
369,501,16883712,9.509694883636051
370,504,16883712,11.478209792948164
371,506,16891904,12.18689663083637
372,507,16891904,12.086996530299594
373,508,16891904,11.76034710347939
374,509,16891904,11.81378427202351
375,510,16891904,11.576457687984869
376,512,16891904,12.248826920887588
377,514,16842752,12.096975460224044
378,515,16842752,12.099478241379632
379,516,16842752,11.747596286301569
380,517,16842752,11.822528203774729
381,518,16842752,11.697468439705721
382,519,16842752,12.174483012359707
383,520,16842752,12.095307514597813
384,521,16842752,12.256414100141246
385,522,16842752,11.62537617546204
386,523,16842752,12.024567803840236
387,524,16842752,11.705264562472548
388,525,16842752,11.402735126059524
389,526,16842752,11.672038808038808
390,527,16842752,11.407925180573391
391,528,16842752,11.775718995032493
392,529,16842752,11.972053660724503
393,530,16842752,11.490108114893221
394,531,16842752,11.237663775198044
395,532,16842752,11.913251184941394
396,533,16842752,10.289677974706434
397,534,16842752,11.240311153585367
398,535,16842752,12.192541179298074
399,536,16842752,11.641317991053409
400,537,16842752,12.198192586970345
401,538,16842752,11.593367804888793
402,539,16842752,11.332274750649951
403,540,16842752,11.67489482874189
404,541,16842752,10.128492977362548
405,542,16842752,11.705012387633909
406,543,16842752,11.163300217860881
407,544,16842752,11.672564599236972
408,545,16842752,11.224011728641877
409,546,16842752,12.003725963508648
410,547,16842752,10.489201437607857
411,548,16842752,11.126721502839692
412,549,16842752,11.115207726050938
413,550,16842752,11.750481209627402
414,551,16842752,12.14135300622395
415,552,16842752,12.194792284361576
416,553,16842752,12.144425833404837
417,554,16842752,12.09725349588696
418,555,16842752,10.153117022078217
419,556,16842752,11.148167637338672
420,557,16842752,11.155965247295418
421,558,16842752,11.882858672822543
422,559,16842752,11.274493751510327
423,560,16842752,12.115083115743438
424,561,16842752,12.177863192059942
425,562,16842752,11.58800768371284
426,563,16842752,11.887949677863794
427,564,16842752,11.876691570266583
428,565,16842752,10.685981192193148
429,566,16842752,11.584946982077906
430,567,16842752,10.16507214573511
431,568,16842752,11.574756310097806
432,569,16842752,11.097630674005018
433,570,16842752,11.531645222954358
434,571,16842752,11.698760300728484
435,572,16842752,11.770443961155495
436,573,16842752,11.664278788886119
437,574,16842752,11.901928306132024
438,575,16842752,11.503409821241359
439,576,16842752,12.135745386972633
440,577,16842752,11.011494147667207
441,578,16842752,12.137984314002452
442,579,16842752,9.69545585373997
443,580,16842752,11.383006677299884
444,581,16842752,10.4664658643273
445,582,16842752,11.615626948265113
446,583,16842752,12.247287894399673
447,584,16842752,11.68343886481057
448,585,16842752,11.943799564165095
449,586,16842752,11.757822840516255
450,587,16842752,9.963413508749097
451,588,16842752,10.825100360049309
452,589,16842752,10.354861655462004
453,590,16842752,11.512727551115267
454,591,16842752,10.409129366685722
455,592,16842752,11.375134399161457
456,593,16842752,10.293904058643664
457,594,16842752,11.053117828377852
458,595,16842752,12.036667245532904
459,596,16842752,11.754679992043856
460,597,16842752,10.611218458991255
461,598,16842752,11.803182554326764
462,599,16842752,11.554428656886795
463,600,16842752,11.91675764327312
464,601,16842752,11.071252641646481
465,602,16842752,11.680327550527887
466,603,16842752,12.176463358737788
467,604,16842752,11.735277559461101
468,605,16842752,11.735539217052493
469,606,16842752,11.628201375272708
470,607,16842752,11.94595974784242
471,608,16842752,11.774401851159247
472,609,16842752,12.172802423755346
473,610,16842752,11.368492955588449
474,611,16842752,11.559757751459147
475,612,16842752,11.517262129442722
476,613,16842752,11.794181740772071
477,614,16842752,11.531645222954358
478,615,16842752,11.953293254234955
479,616,16842752,11.611270743827177
480,617,16842752,12.001536287670579
481,618,16842752,11.557473251977624
482,619,16842752,11.76307834997402
483,620,16842752,11.585712005899218
484,621,16842752,11.873744348732135
485,622,16842752,11.670227213516405
486,623,16842752,11.558480541485352
487,624,16842752,11.759661734559936
488,625,16842752,12.206670681744225
489,626,16842752,11.746015097160774
490,627,16842752,12.131270009903664
491,628,16842752,11.678003249060678
492,629,16842752,11.421540598163087
493,630,16842752,11.508699811408423
494,631,16842752,12.022095914083183
495,632,16842752,11.722470615092512
496,633,16842752,12.2075200242371
497,634,16842752,11.553659833240156
498,635,16842752,11.677744150815194
499,636,16842752,11.467577386691069
500,637,16842752,11.759144487475137
501,638,16842752,11.561789175979571
502,639,16842752,11.580613754751127
503,640,16842752,11.522304741159923
504,641,16842752,11.986230896507552
505,642,16842752,11.86169439577218
506,643,16842752,12.169134897095853
507,644,16842752,11.64261357470067
508,645,16842752,11.778881342964702
509,646,16842752,11.378323511787544
510,647,16842752,11.84088007513934
511,648,16842752,11.489355664336427
512,649,16842752,12.12205868593596
513,650,16842752,11.827310161959923
514,651,16842752,12.034465536250048
515,652,16842752,11.710994298428592
516,653,16842752,11.599755370553005
517,654,16842752,11.660402647392761
518,655,16842752,12.053757846365462
519,656,16842752,11.707087052019908
520,657,16842752,11.920536138306584
521,658,16842752,11.706566282813343
522,659,16842752,11.97014774747115
523,660,16842752,11.693310422632996
524,661,16842752,11.86169439577218
525,662,16842752,11.52104367431145
526,663,16842752,12.312322226031629
527,664,16842752,11.622552348144836
528,665,16842752,12.215178287804658
529,666,16842752,11.747334090787033
530,667,16842752,11.908668928755514
531,668,16842752,11.611791074308146
532,669,16842752,11.967426066678367
533,670,16842752,11.643635760307497
534,671,16842752,11.67773605418028
535,672,16842752,11.723523192286569
536,673,16842752,11.847810060833206
537,674,16842752,11.746015097160774
538,675,16842752,11.829968477301971
539,676,16842752,11.661177669585639
540,677,16842752,11.471826419576837
541,678,16842752,11.584946982077906
542,679,16842752,11.913251184941394
543,680,16842752,11.728478555153838
544,681,16842752,12.163800263168918
545,682,16842752,11.774657024770278
546,683,16842752,12.118700690379654
547,684,16842752,11.760712789431054
548,685,16842752,11.687589863158188
549,686,16842752,11.624092447506888
550,687,16842752,11.858754611766694
551,688,16842752,11.81191546182373
552,689,16842752,11.792340292057784
553,690,16842752,11.74129863756267
554,691,16842752,11.798147349072835
555,692,16842752,11.65033672548987
556,693,16842752,11.899784016057845
557,694,16842752,11.707868292710053
558,695,16842752,12.085864504004403
559,696,16842752,11.634113050734127
560,697,16842752,12.016332121670454
561,698,16842752,11.699288502187006
562,699,16842752,11.327877022492654
