idx,og Index,data (B),bandwidth (GB/s)
0,0,16801792,11.779753324620986
1,2,16801792,11.570517883840258
2,4,16801792,11.414571048126307
3,5,16801792,12.250579288521411
4,6,16801792,11.541531342906287
5,7,16801792,12.312622242871349
6,8,16801792,11.159821488468419
7,10,16801792,11.629984439632974
8,12,16801792,11.92449477116993
9,13,16801792,11.758912024724674
10,14,16801792,11.085360044442275
11,15,16801792,11.907457738348768
12,16,16801792,11.42177192610358
13,18,16801792,11.22639417946818
14,20,16801792,11.093799293638055
15,21,16801792,11.823521795182147
16,22,16801792,11.437695713499943
17,23,16801792,10.72816827125068
18,24,16801792,10.954920745037722
19,25,16801792,12.069775978679003
20,26,16801792,11.588913351763258
21,27,16801792,11.896396272010412
22,28,16801792,11.982185531485182
23,29,16801792,12.117128402620772
24,30,16801792,11.577414322490311
25,31,16801792,12.303389734941488
26,32,16801792,10.908490769998878
27,34,16801792,11.057345967197406
28,36,16801792,10.848978948768579
29,37,16801792,12.037124838178833
30,38,16801792,11.22375441303687
31,39,16801792,12.30886986589891
32,40,16801792,11.52632936540604
33,42,16801792,11.164567442410599
34,44,16801792,11.734733901382874
35,45,16801792,12.003277688358134
36,46,16801792,11.226154149392148
37,47,16801792,11.726609305467926
38,48,16801792,11.932353611673143
39,50,16801792,11.302031390734802
40,52,16801792,11.618660898524588
41,53,16801792,12.068943670621938
42,54,16801792,11.319582405855373
43,55,16801792,12.309447005789952
44,56,16801792,11.727133133434958
45,58,16801792,11.438194047327288
46,60,16801792,11.58968076594101
47,61,16801792,11.07810948488329
48,62,16801792,11.026469235166223
49,63,16801792,12.014813829578031
50,64,16801792,11.829390506377685
51,66,16801792,11.311770998769976
52,68,16801792,11.599914666872865
53,69,16801792,11.841921569733021
54,70,16801792,11.25720300401263
55,71,16801792,12.311476442890367
56,72,16801792,11.850482608802983
57,74,16801792,11.212249945112548
58,76,16801792,11.709871483928522
59,77,16801792,12.156958537615985
60,78,16801792,11.487744977382496
61,79,16801792,12.310601447953324
62,80,16801792,11.834989937809535
63,82,16801792,11.145844403359582
64,84,16801792,11.792717369943007
65,85,16801792,11.856629124678918
66,86,16801792,10.993915385979411
67,87,16801792,12.304840412988424
68,88,16801792,11.824062638328538
69,90,16801792,11.040148342741647
70,92,16801792,11.636677944267642
71,93,16801792,11.699695283297402
72,94,16801792,11.15603503683755
73,95,16801792,12.251999670398023
74,96,16801792,11.160533124317071
75,98,16801792,11.173833672613661
76,100,16801792,11.335704131895742
77,101,16801792,12.13281706963061
78,102,16801792,11.026925141726815
79,103,16801792,12.311756106675851
80,104,16801792,11.398464085099455
81,106,16801792,11.528860246691295
82,108,16801792,11.588665562642127
83,109,16801792,12.271480469246422
84,110,16801792,11.386591143667866
85,111,16801792,12.167399770871745
86,112,16801792,11.865211450120228
87,114,16801792,10.987243731890148
88,116,16801792,11.883463943191785
89,117,16801792,11.763390631738723
90,118,16801792,11.013979050761817
91,119,16801792,12.31031281711244
92,120,16801792,11.827258783090794
93,122,16801792,11.25527249926815
94,124,16801792,11.030631685786577
95,125,16801792,12.007395194838514
96,126,16801792,10.996440936430334
97,127,16801792,12.315221382807879
98,128,16801792,11.255031232729891
99,130,16801792,11.99312467522085
100,132,16801792,12.090064250398822
101,133,16801792,11.490007495062558
102,134,16801792,12.049279164213441
103,135,16801792,12.295610569291915
104,136,16801792,12.094232817943624
105,137,16801792,12.189140778991645
106,138,16801792,12.303389734941488
107,140,16801792,12.054535214501207
108,141,16801792,12.068102809269613
109,142,16801792,12.177267611125647
110,143,16801792,12.258015376332006
111,144,16801792,12.312910982018472
112,145,16801792,12.296474435209248
113,146,16801792,12.309167446896735
114,147,16801792,12.296474435209248
115,148,16801792,11.792717369943007
116,149,16801792,12.033538478507026
117,150,16801792,12.16626321944367
118,151,16801792,12.197919169816855
119,152,16801792,12.224614983887784
120,154,16801792,12.11517126357133
121,155,16801792,12.293316514748211
122,156,16801792,12.265165025524151
123,157,16801792,12.241716047250899
124,158,16801792,12.15781182727618
125,159,16801792,12.290429921664181
126,160,16801792,12.306282419567246
127,161,16801792,12.300795586242442
128,162,16801792,12.241716047250899
129,164,16801792,11.849671911938117
130,165,16801792,12.053981730121482
131,166,16801792,11.914744909826346
132,167,16801792,12.173879524776638
133,168,16801792,11.846471996305423
134,170,16801792,12.011240750365124
135,172,16801792,11.837124449156871
136,173,16801792,11.76155431963515
137,174,16801792,11.982732441998706
138,175,16801792,12.30886986589891
139,176,16801792,11.743132398083278
140,178,16801792,11.976719170900246
141,180,16809984,11.66745028141417
142,181,16809984,12.308234810005631
143,182,16809984,10.9962824549273
144,183,16809984,12.307658064964874
145,184,16809984,11.782588947766843
146,186,16809984,11.40575485677995
147,188,16809984,11.956912396506103
148,189,16809984,11.786025588530595
149,190,16809984,11.755430860378077
150,191,16809984,11.79264842370514
151,192,16809984,11.933281463855113
152,194,16809984,11.610965292781717
153,196,16809984,11.341238699230873
154,197,16809984,12.190838659427095
155,198,16809984,11.329497969989271
156,199,16809984,11.943600007673469
157,200,16809984,11.374390342923647
158,202,16809984,11.232107956629722
159,204,16809984,11.659931968636764
160,205,16809984,11.60019653415333
161,206,16809984,11.560372573075929
162,207,16809984,11.465751406448655
163,208,16809984,11.550713245196933
164,210,16809984,12.007757547357826
165,212,16809984,11.30559503064485
166,213,16809984,12.071775787915717
167,214,16809984,11.958826312288577
168,215,16809984,11.136141949177807
169,216,16809984,11.808553728268132
170,218,16809984,11.839425959850152
171,220,16809984,11.819447051850227
172,221,16809984,11.913525159461376
173,222,16809984,11.935721710679534
174,223,16809984,11.794228750722668
175,224,16809984,11.913525159461376
176,226,16809984,12.063459166120666
177,228,16809984,11.950936418256157
178,229,16809984,11.960460004994795
179,230,16809984,11.979006432753955
180,231,16809984,12.156702283451754
181,232,16809984,11.913263422277753
182,234,16809984,12.158390490842141
183,236,16809984,12.080937326394753
184,237,16809984,11.952559457107265
185,238,16809984,12.047689113422543
186,239,16809984,12.04050081654872
187,240,16809984,11.86535735864612
188,242,16809984,11.156022532399616
189,244,16809984,11.698622052723882
190,245,16809984,12.041061419499949
191,246,16809984,11.215561155557513
192,247,16809984,12.310253843387937
193,248,16809984,11.88415588124882
194,250,16809984,11.156725932543225
195,252,16809984,11.796885647295943
196,253,16809984,12.034441013643104
197,254,16809984,11.22730675956643
198,255,16809984,12.311984970721472
199,256,16809984,11.765172257403457
200,258,16809984,11.397086112830582
201,260,16809984,11.318017749308025
202,261,16809984,12.110189138136974
203,262,16809984,11.215561155557513
204,263,16809984,12.292106354242609
205,264,16809984,11.339517344890973
206,266,16809984,11.161941263299223
207,268,16809984,11.82423583780875
208,269,16809984,12.023689767050625
209,270,16809984,11.17096105577312
210,271,16809984,12.02920501978273
211,272,16809984,11.183803760981727
212,274,16809984,11.379071694312218
213,276,16809984,10.989144205688735
214,277,16809984,12.305351625208353
215,278,16809984,11.297814297629474
216,279,16809984,12.06318214274181
217,280,16809984,11.154593792572134
218,282,16809984,11.016106729858068
219,284,16809984,11.795296331666366
220,285,16809984,11.829819336459805
221,286,16809984,11.690039117508997
222,287,16809984,11.944957922584377
223,288,16809984,11.642617700674316
224,290,16809984,11.134261034752042
225,292,16809984,11.481280577220053
226,293,16809984,11.977632231475623
227,294,16809984,11.081413860548086
228,295,16809984,11.92651669465605
229,296,16809984,11.895180784275986
230,298,16809984,11.460748433264428
231,300,16809984,11.718978488926565
232,301,16809984,11.889257928537075
233,302,16809984,11.283738982233968
234,303,16809984,12.099868276145026
235,304,16809984,12.02782788383726
236,306,16809984,11.083985834111939
237,308,16809984,11.934094768587672
238,309,16809984,12.066775777414076
239,310,16809984,11.368720906089948
240,311,16809984,12.303046049737727
241,312,16809984,11.864025853861317
242,314,16809984,11.331689865981238
243,316,16809984,11.991037742915045
244,317,16809984,11.747815190827051
245,318,16809984,11.18285887631121
246,319,16809984,11.956095978878729
247,320,16809984,11.85652811466917
248,322,16809984,11.217477126267806
249,324,16809984,11.666672912957932
250,325,16809984,12.050452806410474
251,326,16809984,11.177378719341139
252,327,16809984,12.066775777414076
253,328,16809984,11.943056928151893
254,330,16809984,11.218674940419502
255,332,16809984,11.746493518109602
256,333,16809984,12.19536691693431
257,334,16809984,11.478528780338578
258,335,16809984,12.305351625208353
259,336,16809984,11.890881079050738
260,338,16809984,11.484292601744713
261,340,16809984,11.843429849276184
262,341,16809984,11.88683664175685
263,342,16809984,11.249908146855276
264,343,16809984,11.686650092603408
265,344,16809984,12.048794438483355
266,346,16809984,11.245332446728447
267,348,16809984,11.832750494146268
268,349,16809984,11.985839440935994
269,350,16809984,11.063436131466128
270,351,16809984,12.248255842336162
271,352,16809984,11.183089502721266
272,354,16809984,11.854387643781306
273,356,16809984,12.054600724137263
274,357,16809984,11.531442934051883
275,358,16809984,12.245971610590844
276,359,16809984,11.986933445715398
277,360,16809984,12.204717080448837
278,362,16809984,12.306793048741829
279,364,16809984,12.306504737020505
280,365,16809984,12.248827033427453
281,366,16809984,12.239132935603607
282,367,16809984,11.972726942507352
283,368,16809984,11.793177910185149
284,370,16809984,12.218636018043766
285,372,16809984,12.09735174972779
286,373,16809984,12.214933624379897
287,374,16809984,12.221763047344291
288,375,16809984,12.221469820356582
289,376,16809984,11.884424743098933
290,378,16809984,12.30448693314946
291,380,16809984,12.236567060964513
292,381,16809984,11.951208310256792
293,382,16809984,12.141810120977615
294,383,16809984,12.222322883394858
295,384,16809984,12.300741338067281
296,385,16809984,12.202165614250053
297,386,16809984,12.120518882719267
298,388,16809984,11.888728187769946
299,389,16809984,11.96073233050929
300,390,16809984,11.944406232413781
301,391,16809984,12.12527491075544
302,392,16809984,11.908933763311664
303,394,16809984,12.078159634479047
304,396,16809984,11.81652248058637
305,397,16809984,12.205851407958281
306,398,16809984,11.92840396241946
307,399,16809984,11.895458562933829
308,400,16809984,11.77915431057196
309,402,16809984,11.951752131374127
310,404,16809984,11.930850682529059
311,405,16809984,12.23827752450206
312,406,16809984,11.88415588124882
313,407,16809984,12.033613974754442
314,408,16809984,11.864553395481725
315,410,16809984,12.028103285800457
316,412,16809984,11.924621564928952
317,413,16809984,11.92489226087234
318,414,16809984,12.001447885751247
319,415,16809984,11.145836883406213
320,416,16809984,12.08955629632027
321,418,16809984,12.090947604645057
322,420,16809984,12.04575528247359
323,421,16809984,11.973545633070666
324,422,16809984,11.966181446208012
325,423,16809984,11.987480522999796
326,424,16809984,11.825824642762672
327,426,16809984,11.900031148237293
328,428,16809984,11.903005635699705
329,429,16809984,12.09568915272531
330,430,16809984,11.937900134860762
331,431,16809984,11.920283647709544
332,432,16809984,11.84636775642548
333,434,16809984,12.017371946237043
334,436,16785408,11.712558404367558
335,437,16785408,11.78254106415836
336,438,16785408,11.330039365614217
337,439,16785408,11.529255160220812
338,440,16785408,11.736414303184382
339,441,16785408,12.059669665764519
340,442,16785408,12.10447454444365
341,443,16785408,11.798707761863792
342,444,16785408,12.13106872948844
343,445,16785408,12.007210589265378
344,446,16785408,11.967224077883097
345,447,16785408,11.830374108426602
346,448,16785408,12.223517811602921
347,449,16785408,11.992121185708683
348,450,16785408,12.307551527683069
349,451,16785408,11.752709674166933
350,452,16785408,11.970501294009333
351,453,16785408,11.919355113587947
352,454,16785408,11.842927859025664
353,455,16785408,11.745078172668395
354,456,16785408,12.259218657222757
355,457,16785408,11.806417442546664
356,458,16785408,12.307831285988625
357,459,16785408,11.947317773133886
358,460,16785408,11.844532383441626
359,461,16785408,11.777787289280264
360,462,16785408,11.832242128948215
361,463,16785408,11.786777221632372
362,464,16785408,12.302346733782516
363,465,16785408,11.964485906698524
364,466,16785408,12.003372447334115
365,467,16785408,12.031722548125721
366,468,16785408,12.12181751348822
367,469,16785408,12.044992712902719
368,470,16785408,12.05939241106549
369,471,16785408,11.482572362048302
370,472,16785408,12.173863347081934
371,473,16785408,11.979796494718954
372,474,16785408,11.77699398921328
373,475,16785408,11.902856332435116
374,476,16785408,11.600143745680718
375,477,16785408,11.88775007223837
376,478,16785408,11.990202346265198
377,479,16785408,11.556441707654262
378,480,16785408,11.850427727561865
379,481,16785408,12.216960965629578
380,482,16785408,12.026757003078087
381,483,16785408,11.98253312516999
382,484,16785408,12.311595722988862
383,485,16785408,11.674758929217278
384,486,16785408,11.950039583321468
385,487,16785408,11.46274919008102
386,488,16785408,11.924782982750157
387,489,16785408,11.906909173452885
388,490,16785408,11.704456580554828
389,491,16785408,11.744552227527414
390,492,16785408,11.825839941833923
391,493,16785408,11.62533062301531
392,494,16785408,11.991024630830436
393,495,16785408,11.881287692177015
394,496,16785408,11.741134731929515
395,497,16785408,11.881556817731369
396,498,16785408,12.164546770222842
397,499,16785408,12.225797006445974
398,500,16785408,12.308417917277122
399,501,16785408,12.011068375915478
400,502,16785408,11.942158244513394
401,503,16785408,12.054126992904145
402,504,16785408,12.213831819223675
403,505,16785408,11.905836590779
404,506,16785408,11.446740025859388
405,507,16785408,12.161162458603425
406,508,16785408,11.910153433957552
407,509,16785408,12.087459664439825
408,510,16785408,11.839461231203504
409,511,16785408,11.993483591798471
410,512,16785408,11.831983573080548
411,513,16785408,12.06077881205833
412,514,16785408,12.10726844014423
413,515,16785408,12.226928016211849
414,516,16785408,12.310151062453523
415,517,16785408,11.872153068896422
416,518,16785408,11.849089262381238
417,519,16785408,11.9563044556007
418,520,16785408,12.285059140308286
419,521,16785408,12.011609867242198
420,522,16785408,12.000077210416258
421,523,16785408,12.089967047807688
422,524,16785408,12.246053233470418
423,525,16785408,11.785982710099256
424,526,16785408,11.885325856062536
425,527,16785408,11.76694651479718
426,528,16785408,12.310728885981291
427,529,16785408,12.07995244421479
428,530,16785408,12.306685260050765
429,531,16785408,12.160316674913409
430,532,16785408,12.307840310661843
431,533,16785408,11.734051410463708
432,534,16785408,11.825839941833923
433,535,16785408,12.0052955047573
434,536,16785408,12.313609784331835
435,537,16785408,12.035596104247167
436,538,16785408,11.910702767601121
437,539,16785408,12.014094477086454
438,540,16785408,12.308697714971661
439,541,16793600,11.415202007122266
440,542,16793600,12.312682423619446
441,543,16793600,11.15770045172688
442,544,16793600,12.305762317413281
443,545,16793600,12.045062833920634
444,546,16793600,12.30488770808131
445,547,16793600,11.630496811475364
446,548,16793600,12.021059186909232
447,549,16793600,11.796240622629316
448,550,16793600,11.731372143579655
449,551,16793600,11.637976437976437
450,552,16793600,12.304608219973007
451,553,16793600,11.792802946515408
452,554,16793600,12.31095843614702
453,555,16793600,11.560044275322015
454,556,16793600,12.306339447322717
455,557,16793600,11.248579158218645
456,558,16793600,12.01444572265815
457,559,16793600,11.387715025035396
458,560,16793600,12.30488770808131
459,561,16793600,11.28001762502754
460,562,16793600,12.30604185795321
461,563,16793600,11.238702639759346
462,564,16793600,12.30835982837953
463,565,16793600,11.200803563746522
464,566,16793600,11.923555084742754
465,567,16793600,11.287053117758076
466,568,16793600,11.834821589021557
467,569,16793600,11.45806965749831
468,570,16793600,12.309216886765554
469,571,16793600,11.77163301126582
470,572,16793600,12.305473772757315
471,573,16793600,11.138991311592083
472,574,16793600,12.24374929826787
473,575,16793600,11.608372273066607
474,576,16793600,11.953973897662037
475,577,16793600,11.886017777784069
476,578,16793600,12.199056973146762
477,579,16793600,11.898144244877775
478,580,16793600,12.308350807347075
479,581,16793600,11.807653150188713
480,582,16793600,12.047542799423793
481,583,16793600,11.864520536622
482,584,16793600,12.309225909067587
483,585,16793600,11.986738186243544
484,586,16793600,12.104795397848129
485,587,16793600,11.92463880492306
486,588,16793600,12.2752427294463
487,589,16793600,11.77533081656579
488,590,16793600,11.806333277794298
489,591,16793600,11.836156181215769
490,592,16793600,12.307484849795127
491,593,16793600,11.792264696795215
492,594,16793600,12.302877479644897
493,595,16793600,11.867731777502643
494,596,16793600,11.901382149485885
495,597,16793600,11.882519176708746
496,598,16793600,11.994683187544775
497,599,16793600,11.89786606965738
498,600,16793600,12.260912355094526
499,601,16793600,11.868000158300307
500,602,16793600,12.30604185795321
501,603,16793600,11.669548105199375
502,604,16793600,12.307196224354817
503,605,16793600,11.694251477658252
504,606,16793600,11.37857952050822
505,607,16793600,11.18981764973584
506,608,16793600,11.916515702089946
507,609,16793600,11.737940087131504
508,610,16793600,11.721938989183787
509,611,16793600,11.37043629688961
510,612,16793600,11.928424904678293
511,613,16793600,11.720638208627305
512,614,16793600,11.487673406845978
513,615,16793600,10.987174781628461
514,616,16793600,12.267782096676283
515,617,16793600,11.732421209123478
516,618,16793600,12.303733774678204
517,619,16793600,11.362804434535791
518,620,16793600,11.848440207483167
519,621,16793600,11.352242922423816
520,622,16793600,12.305464755954853
521,623,16793600,11.095423309665088
522,624,16793600,12.311815856477493
523,625,16793600,11.223087739182969
524,626,16793600,12.30605087560143
525,627,16793600,11.217562710367709
526,628,16793600,12.31095843614702
527,629,16793600,11.730061075441862
528,630,16793600,11.863984101854383
529,631,16793600,11.216131738254639
530,632,16793600,12.18829086248328
531,633,16793600,11.303584601881418
532,634,16793600,12.30633042925157
533,635,16793600,10.99361930691546
534,636,16793600,12.30633042925157
535,637,16793600,11.08206825328217
536,638,16793600,12.29998498536989
537,639,16793600,10.992230505900757
538,640,16793600,11.480887974929312
539,641,16793600,11.5313414962399
540,642,16793600,12.303742788944097
541,643,16793600,11.314307273560244
542,644,16793600,12.311247238077364
543,645,16793600,11.85165947650748
544,646,16793600,11.832153307325555
545,647,16793600,11.222127777866877
546,648,16793600,12.26290889202556
547,649,16793600,11.23341019111433
548,650,16793600,12.186035576466764
549,651,16793600,11.268868288525866
550,652,16793600,12.306916631368509
551,653,16793600,11.390186598950619
552,654,16793600,11.699995332152206
553,655,16793600,11.172427649256983
554,656,16793600,12.28530023036401
555,657,16793600,11.682544982765158
556,658,16793600,12.129686877033219
557,659,16793600,11.20223809958983
558,660,16793600,12.053362195868571
559,661,16793600,11.732421209123478
560,662,16793600,11.904613377945388
561,663,16793600,11.291181453890218
562,664,16793600,12.203320858917996
