idx,og Index,data (B),bandwidth (GB/s)
0,0,33570816,9.931018814341497
1,1,33570816,12.33739020375493
2,3,33570816,12.338696143562036
3,5,33570816,12.343046735514461
4,7,33570816,12.343918129859128
5,9,33570816,12.340002359871596
6,11,33570816,12.12590698279225
7,13,33570816,12.223393192642112
8,15,33570816,12.33202424320791
9,17,33570816,12.342034801706887
10,19,33570816,12.336950418204001
11,21,33570816,12.34363219002775
12,23,33570816,12.30872930583314
13,25,33570816,12.330140013655749
14,27,33570816,12.346101694541257
15,29,33570816,12.348136146202497
16,31,33570816,12.347118836567033
17,33,33570816,12.34682820745845
18,35,33570816,12.344939451695025
19,37,33570816,12.346387748797387
20,39,33570816,12.343627651407074
21,41,33570816,12.342760836051898
22,43,33570816,12.239650691703927
23,45,33570816,12.344063374212014
24,47,33570816,12.34435841232685
25,49,33570816,12.34479418672509
26,51,33570816,12.346973520302498
27,53,33570816,12.345375267118081
28,55,33570816,12.348862898583244
29,57,33570816,12.347700135832435
30,59,33570816,12.345084720083754
31,61,33570816,12.346392289448008
32,63,33570816,12.346246990284692
33,64,33587200,11.916270488895195
34,65,33587200,12.346170034056803
35,67,33587200,12.344717957199695
36,69,33587200,12.34646049042215
37,71,33587200,12.34326622187024
38,73,33587200,12.20674476145618
39,75,33587200,12.254922171655457
40,77,33587200,12.259354970580935
41,79,33587200,12.320080287108578
42,81,33587200,12.340653958542381
43,83,33587200,12.349947033099808
44,85,33587200,12.347041444154481
45,87,33587200,12.346891661789746
46,89,33587200,12.346315260531174
47,91,33587200,12.34326622187024
48,93,33587200,12.345734375132096
49,95,33587200,12.346170034056803
50,97,33587200,12.345298746952471
51,99,33587200,12.23591677571469
52,101,33587200,12.246057253905374
53,103,33587200,12.342830767851282
54,105,33587200,12.346605723729846
55,107,33587200,12.343846875026415
56,109,33587200,12.344568231201908
57,111,33587200,12.344863149514673
58,113,33587200,12.345734375132096
59,115,33587200,12.343411380037875
60,117,33587200,12.344568231201908
61,119,33587200,12.344282400745938
62,121,33587200,12.334418025102027
63,123,33587200,12.349801721174194
64,125,33587200,12.344282400745938
65,127,33587200,12.345734375132096
66,128,33603584,11.62434403835071
67,129,33603584,12.34667378974167
68,131,33603584,12.34550803695028
69,132,33603584,11.937262168314497
70,134,33603584,12.138163807278076
71,137,33603584,12.344932045825672
72,139,33603584,12.344206464221232
73,141,33603584,12.308468605214644
74,143,33603584,12.276806617077554
75,145,33603584,12.222369570127642
76,147,33603584,12.346093153829507
77,149,33603584,12.347399661438077
78,151,33603584,12.336810400877877
79,153,33603584,12.279390656380363
80,155,33603584,12.298378068182108
81,157,33603584,12.345512572526744
82,159,33603584,12.346964128178683
83,161,33603584,12.345362900263046
84,163,33603584,12.345077172382453
85,165,33603584,12.347544846019389
86,167,33603584,12.341885176148766
87,169,33603584,12.346093153829507
88,171,33603584,12.344786922681017
89,173,33603584,12.34304571104706
90,175,33603584,12.029428863540685
91,177,33603584,12.19200210144478
92,179,33603584,12.3182867090698
93,181,33603584,12.037426672665633
94,183,33603584,12.346233771577886
95,185,33603584,12.34232035116033
96,187,33603584,12.326383975062276
97,189,33603584,12.350013506386592
98,191,33603584,12.347109302517843
99,192,33619968,11.6938327669019
100,193,33619968,12.346447069607294
101,195,33619968,12.297029507412423
102,197,33619968,12.325593962579578
103,199,33619968,12.125581033005272
104,201,33619968,12.060023244802204
105,203,33619968,12.205877996288132
106,205,33619968,12.124181743171937
107,207,33619968,11.43843685888385
108,209,33619968,12.157295740422324
109,211,33619968,11.804461472722082
110,213,33619968,12.108950402959744
111,215,33619968,12.282940470062222
112,217,33619968,12.184220368614694
113,219,33619968,12.067364818106377
114,221,33619968,12.103509949224252
115,223,33619968,12.15658799468899
116,225,33619968,12.342825423013847
117,227,33619968,11.971111210019851
118,229,33619968,12.244004820398633
119,231,33619968,12.09292207287701
120,233,33619968,12.160672953906955
121,235,33619968,11.779447332471188
122,237,33619968,12.124046204127733
123,239,33619968,12.249857989687811
124,241,33619968,11.959119833553936
125,243,33619968,12.068889661094342
126,245,33619968,12.081245555322779
127,247,33619968,12.187612559705583
128,249,33619968,12.213114325321058
129,251,33619968,12.337462582994469
130,253,33619968,11.984634557416507
131,255,33619968,12.206303425320007
132,256,33636352,12.15337166179612
133,257,33636352,12.022566560200845
134,259,33636352,12.340431807867548
135,261,33636352,12.259968683390241
136,263,33636352,12.077823515386891
137,265,33636352,11.914636047028953
138,267,33636352,12.20431159346672
139,269,33636352,12.147332352966668
140,271,33636352,11.79126909760016
141,273,33636352,11.991022156564691
142,275,33636352,12.195532557336822
143,277,33636352,12.346664699208281
144,279,33636352,12.318593975173364
145,281,33636352,11.932214549160628
146,283,33636352,11.953930440765475
147,285,33636352,11.813001400224275
148,287,33636352,11.664865768402333
149,289,33636352,11.869426384107923
150,291,33636352,12.111361718185144
151,293,33636352,11.86313033682741
152,295,33636352,12.222333977703812
153,297,33636352,11.97149308254535
154,299,33636352,12.279451336666863
155,301,33636352,12.15140471600778
156,303,33636352,12.3485503013865
157,305,33636352,12.34854576799838
158,307,33636352,12.14943840679171
159,309,33636352,12.136116764703017
160,311,33636352,12.151123775724594
161,313,33636352,12.225892407020982
162,315,33636352,11.859650285716704
163,317,33636352,11.948495122041326
164,319,33636352,11.824163632675774
165,320,33652736,12.142864977989463
166,321,33652736,12.322716885070438
167,323,33652736,12.053513967328858
168,325,33652736,12.237251747621112
169,327,33652736,12.065129912779609
170,329,33652736,11.763495022506124
171,331,33652736,11.881920611920357
172,333,33652736,12.140762226359005
173,335,33652736,11.69650777276628
174,337,33652736,11.941284174489672
175,339,33652736,12.269379394878927
176,341,33652736,12.065268332697553
177,343,33652736,12.317516463502121
178,345,33652736,11.970780153953415
179,347,33652736,12.320113870331916
180,349,33652736,11.928822797122287
181,351,33652736,12.219056620284018
182,353,33652736,11.973365430491992
183,355,33652736,11.959068839190431
184,357,33652736,12.236971412177143
185,359,33652736,12.136418846596598
186,361,33652736,12.03117483361505
187,363,33652736,12.172380166963265
188,365,33652736,11.467063750327968
189,367,33652736,12.230993980950277
190,369,33652736,12.157323568767648
191,371,33652736,11.702494949905919
192,373,33652736,11.86516346856287
193,375,33652736,11.739857535416428
194,377,33652736,11.837783837479915
195,379,33652736,11.69650777276628
196,381,33652736,12.142304173004927
197,383,33652736,12.332977239169576
198,384,33669120,12.194255547861259
199,385,33669120,12.299168003647107
200,387,33669120,12.337968773532808
201,389,33669120,11.868257837326242
202,391,33669120,12.181549264384516
203,393,33669120,12.029046243549
204,395,33669120,12.213506525164762
205,397,33669120,12.031659779936728
206,399,33669120,12.092086138702403
207,401,33669120,12.344333410571455
208,403,33669120,11.973877984167894
209,405,33669120,12.344337936458178
210,407,33669120,12.113529802868467
211,409,33669120,12.186350713302001
212,411,33669120,12.089311720655274
213,413,33669120,12.227416276144185
214,415,33669120,11.837679965038026
215,417,33669120,12.345641529960872
216,419,33669120,12.345351818722818
217,421,33669120,11.41997363874223
218,423,33669120,11.88891431283316
219,425,33669120,12.218328770543442
220,427,33669120,12.141066508964503
221,429,33669120,11.790059323022103
222,431,33669120,12.17352003982982
223,433,33669120,12.01860773266091
224,435,33669120,11.828364435566401
225,437,33669120,12.277501392057813
226,439,33669120,12.235236658264942
227,441,33669120,12.231258566554935
228,443,33669120,12.200194222602294
229,445,33669120,11.889048653504448
230,447,33669120,12.051780699823352
231,448,33685504,12.098948051985369
232,449,33685504,12.347447615312293
233,451,33685504,12.139690301078556
234,453,33685504,12.02184706483599
235,455,33685504,12.238775537638803
236,457,33685504,12.022808194731958
237,459,33685504,11.841042403901282
238,461,33685504,12.098526541115877
239,463,33685504,12.127941841475392
240,465,33685504,12.10827225070668
241,467,33685504,11.9929435480282
242,469,33685504,12.196514278597022
243,471,33685504,12.344985980395641
244,473,33685504,12.294518008087945
245,475,33685504,11.238049929756983
246,477,33685504,12.21888692085392
247,479,33685504,11.562955980758101
248,481,33685504,12.309037917920024
249,483,33685504,11.855444923598018
250,485,33685504,12.13031767020722
251,487,33685504,12.067878607233238
252,489,33685504,11.982295565034061
253,491,33685504,12.028303315098624
254,493,33685504,12.038482541334423
255,495,33685504,12.008133396833907
256,497,33685504,11.906938864960685
257,499,33685504,11.87309565409257
258,501,33685504,12.121094707207167
259,503,33685504,12.009914404123206
260,505,33685504,12.087967941975752
261,507,33685504,12.088249901673418
262,509,33685504,12.153425638094909
263,511,33685504,12.216330071342155
264,512,33701888,12.219581925168862
265,513,33701888,12.035387055291471
266,515,33701888,12.302222014560343
267,517,33701888,11.959671549748204
268,519,33701888,12.273834670147336
269,521,33701888,12.349686896177198
270,523,33701888,12.271836910962069
271,525,33701888,12.007399278883838
272,527,33701888,11.63748067146919
273,529,33701888,11.797435724204707
274,531,33701888,12.13201921287405
275,533,33701888,12.079841486948768
276,535,33701888,12.162004705746496
277,537,33701888,11.9606223008038
278,539,33701888,11.423896367675642
279,541,33701888,12.084692814994794
280,543,33701888,12.136637194656434
281,545,33701888,12.225960826878485
282,547,33701888,11.700967792894057
283,549,33701888,12.121411615761987
284,551,33701888,11.89000561656633
285,553,33701888,12.007536177356695
286,555,33701888,11.704478813475442
287,557,33701888,12.133141710036318
288,559,33701888,12.027556908213112
289,561,33701888,12.102050841566097
290,563,33701888,12.084549818365407
291,565,33701888,12.302509425311525
292,567,33701888,12.068075890695855
293,569,33701888,12.09940920853474
294,571,33701888,12.095514035932073
295,573,33701888,12.274554380331802
296,575,33701888,12.070146183844889
297,576,33718272,12.01693576668558
298,577,33718272,12.267363647741263
299,579,33718272,12.209510290986515
300,581,33718272,11.986042583202755
301,583,33718272,12.277941394950492
302,585,33718272,12.105704154027489
303,587,33718272,12.075464778805685
304,589,33718272,12.222114606682926
305,591,33718272,12.250249231958659
306,593,33718272,12.138476442336943
307,595,33718272,12.345846409360476
308,597,33718272,12.329373495315183
309,599,33718272,12.144076757956002
310,601,33718272,12.343672482010701
311,603,33718272,11.436020630661705
312,605,33718272,12.33341880357512
313,607,33718272,12.345701758400688
314,609,33718272,12.3477226585731
315,611,33718272,12.345267825858365
316,613,33718272,12.344106302406566
317,615,33718272,11.328439098287982
318,617,33718272,12.332552694921558
319,619,33718272,12.136104096540961
320,621,33718272,12.347437793664913
321,623,33718272,12.122564981464684
322,625,33718272,12.051295687902623
323,627,33718272,12.229065175698457
324,629,33718272,12.346425047097874
325,631,33718272,12.348161285798044
326,633,33718272,12.329378003657318
327,635,33718272,12.166090804388677
328,637,33718272,12.184802185571183
329,639,33718272,11.81442000733709
330,640,33734656,12.160068285958989
331,641,33734656,12.083686516567374
332,643,33734656,12.301973404711156
333,645,33734656,11.52249291428626
334,647,33734656,12.239410905903421
335,649,33734656,12.304701585602896
336,651,33734656,12.332194356048905
337,653,33734656,12.17495445398192
338,655,33734656,11.752429678923901
339,657,33734656,12.073722216018577
340,659,33734656,11.91434019452341
341,661,33734656,12.22677704162257
342,663,33734656,11.924182141574553
343,665,33734656,12.234727832104529
344,667,33734656,12.293652751696294
345,669,33734656,11.828516148622517
346,671,33734656,12.166243028727557
347,673,33734656,12.129707028721828
348,675,33734656,12.25506191712028
349,677,33734656,12.280186962156181
350,679,33734656,12.204412518052658
351,681,33734656,12.225930689664045
352,683,33734656,12.034578316347645
353,685,33734656,12.19665099362051
354,687,33734656,12.319795723396858
355,689,33734656,12.215301455060558
356,691,33734656,12.153619571075712
357,693,33734656,12.23358756922827
358,695,33734656,12.23785244267994
359,697,33734656,11.569153274067753
360,699,33734656,11.896194025429587
361,701,33734656,11.75675484467926
362,703,33734656,11.651113040607141
363,704,33751040,12.121511626236536
364,705,33751040,12.076128430230394
365,707,33751040,12.298762910114664
366,709,33751040,11.971404299995921
367,711,33751040,12.164290348158293
368,713,33751040,12.026278122362095
369,715,33751040,12.196361512865952
370,717,33751040,12.18523000672965
371,719,33751040,11.835588922510667
372,721,33751040,12.27642678601047
373,723,33751040,12.297324476131902
374,725,33751040,12.210622588702465
375,727,33751040,12.249341731586178
376,729,33751040,12.154617820173378
377,731,33751040,11.718940209899717
378,733,33751040,12.345693643828021
379,735,33751040,12.337029210626259
380,737,33751040,12.063559237220527
381,739,33751040,12.177914021885654
382,741,33751040,12.316567261346949
383,743,33751040,12.040148287248039
384,745,33751040,12.280858025284324
385,747,33751040,11.875300171949048
386,749,33751040,12.20271575273251
387,751,33751040,12.185793138905819
388,753,33751040,12.235979268720653
389,755,33751040,11.88118616699399
390,757,33751040,11.656131575193891
391,759,33751040,11.901828981453466
392,761,33751040,12.256596932713174
393,763,33751040,12.293315665499536
394,765,33751040,11.699445480704135
395,767,33751040,11.904251150444288
396,768,33767424,12.088080393835861
397,769,33767424,12.248033436744075
398,771,33767424,12.243055333984993
399,773,33767424,12.245186407930351
400,775,33767424,12.120570288159199
401,777,33767424,12.178201196201929
402,779,33767424,12.116812543598018
403,781,33767424,12.184810440837277
404,783,33767424,11.03817925775412
405,785,33767424,12.138276916175155
406,787,33767424,11.97993518208088
407,789,33767424,11.884811656943748
408,791,33767424,12.192412902629458
409,793,33767424,12.037748010072981
410,795,33767424,11.506515801794771
411,797,33767424,12.003788040371637
412,799,33767424,11.962280339730588
413,801,33767424,12.038709346202223
414,803,33767424,11.499995061810804
415,805,33767424,12.093067497142137
416,807,33767424,11.901298739747697
417,809,33767424,11.470871547011061
418,811,33767424,11.83987287557648
419,813,33767424,12.015405943187027
420,815,33767424,11.924969726206246
421,817,33767424,11.976400045823777
422,819,33767424,12.219096390948277
423,821,33767424,11.791582116633474
424,823,33767424,12.015128047198823
425,825,33767424,12.029372860989762
426,827,33767424,12.283387024960058
427,829,33767424,11.72606218030413
428,831,33767424,11.899285671243854
429,832,33783808,12.161513185366935
430,833,33783808,11.964291077018968
431,835,33783808,12.004418890650934
432,837,33783808,11.448311852377477
433,839,33783808,12.249568612151233
434,841,33783808,12.162918656238986
435,843,33783808,12.162629654390564
436,845,33783808,12.245874370331062
437,847,33783808,12.150176226029663
438,849,33783808,12.219365330138862
439,851,33783808,12.150735579731203
440,853,33783808,12.26550332997383
441,855,33783808,12.111010097823563
442,857,33783808,11.775591858956998
443,859,33783808,11.953179105877025
444,861,33783808,12.34409769811085
445,863,33783808,12.345974288331885
446,865,33783808,12.126729784600718
447,867,33783808,12.059684784378007
448,869,33783808,12.013985576307592
449,871,33783808,12.290495948195105
450,873,33783808,12.121578139127688
451,875,33783808,12.030002535345277
452,877,33783808,12.267783739502024
453,879,33783808,12.131606994602079
454,881,33783808,12.281774236410955
455,883,33783808,12.147799547223652
456,885,33783808,12.235793157999959
457,887,33783808,12.239481318961595
458,889,33783808,11.986156095522231
459,891,33783808,12.217244262375708
460,892,33783808,12.23749510990046
461,894,33783808,12.314288796937012
462,896,33800192,12.0651198652141
463,897,33800192,12.316812864218477
464,898,33800192,12.002597944016365
465,899,33800192,12.270311243026292
466,900,33800192,12.077945903259062
467,901,33800192,12.214127618117713
468,902,33800192,12.23293695947374
469,903,33800192,12.31365842907027
470,904,33800192,12.10952103891935
471,905,33800192,12.34719681867879
472,906,33800192,12.162507448593907
473,907,33800192,12.221613475228594
474,908,33800192,11.903718482178862
475,909,33800192,12.265751603248011
476,910,33800192,11.82800084825181
477,911,33800192,12.291162159144918
478,912,33800192,11.84033573116285
479,913,33800192,12.226993938267054
480,914,33800192,11.706095550981662
481,915,33800192,12.346037747978622
482,916,33800192,12.151733301887607
483,917,33800192,12.345316257447324
484,918,33800192,12.02487498470217
485,919,33800192,12.332487820825294
486,920,33800192,11.97877712973828
487,921,33800192,12.000556709054191
488,922,33800192,12.02500760452892
489,923,33800192,12.176247662029633
490,924,33800192,12.034465373692951
491,925,33800192,12.33435997442642
492,926,33800192,12.098836191637318
493,927,33800192,12.244143945395775
494,928,33800192,12.148379027272597
495,929,33800192,12.11063178442338
496,930,33800192,11.829992079550294
497,931,33800192,11.469157473012853
498,932,33800192,12.217231258584544
499,933,33800192,12.248114960588834
500,934,33800192,11.842858078868082
501,935,33800192,12.347052486729734
502,936,33800192,12.20904070716674
503,937,33800192,12.176247662029633
504,938,33800192,11.95640817389188
505,939,33800192,11.912713436371845
506,940,33800192,12.218648950449323
507,941,33800192,12.091772454168687
508,942,33800192,11.858946699951057
509,943,33800192,12.193677794356596
510,944,33800192,12.154110367325334
511,945,33800192,12.009557848254769
512,946,33800192,11.855885168336828
513,947,33800192,12.065395499990005
514,948,33800192,12.211444659889715
515,949,33800192,11.912847792382093
516,950,33800192,11.931687593480534
517,951,33800192,11.628637110829915
518,952,33800192,12.206082277916469
519,953,33800192,12.205372644520903
520,954,33800192,11.931552812176893
521,955,33800192,12.337966371567063
522,956,33800192,12.241159615122744
523,957,33800192,12.229683734215023
524,958,33800192,12.237188677551186
525,959,33800192,12.249539829442435
