idx,og Index,data (B),bandwidth (GB/s)
0,0,16785408,12.12240405586931
1,1,16785408,12.126336230531328
2,2,16785408,11.968614968640638
3,3,16785408,12.315380534908138
4,4,16785408,12.325508887588363
5,5,16785408,12.137270384478555
6,6,16785408,12.304393848319137
7,7,16785408,12.319429877836207
8,8,16785408,12.33014454236332
9,9,16785408,12.31132482331093
10,10,16785408,12.238945660693778
11,11,16785408,12.310755972790114
12,12,16785408,12.315380534908138
13,13,16785408,12.236090669524236
14,14,16785408,12.316248027136911
15,16,16785408,12.272448310376822
16,18,16785408,12.1829466119022
17,20,16785408,12.253240624144539
18,22,16785408,12.228959015587263
19,24,16785408,12.269290679001202
20,26,16785408,12.319131509495445
21,28,16785408,12.286533890904673
22,30,16785408,12.293723871436482
23,32,16785408,12.09333798274913
24,33,16785408,12.328405763251888
25,34,16785408,12.23009952151855
26,35,16785408,12.24322171618298
27,36,16785408,12.008619382163145
28,38,16785408,12.30295989486484
29,40,16785408,12.31711564158615
30,42,16785408,12.279918267553052
31,44,16785408,12.268133885684382
32,46,16785408,12.263553692018034
33,48,16785408,12.320578278728233
34,50,16785408,12.29114026936604
35,52,16785408,12.299209748269837
36,54,16785408,12.292004349879718
37,56,16785408,12.251809625301544
38,58,16785408,12.30180576005136
39,60,16785408,12.308156182562513
40,62,16785408,12.265274224697869
41,64,16785408,12.143179692264509
42,65,16785408,12.251237319346997
43,66,16785408,12.164573217572798
44,67,16785408,12.048624006649732
45,68,16785408,12.058872592863993
46,70,16785408,12.308733818826589
47,72,16785408,12.316537218371996
48,74,16785408,12.162598798334015
49,76,16785408,12.243802204487315
50,78,16785408,12.296317567666563
51,80,16785408,12.31220077531605
52,82,16785408,12.315091397987521
53,84,16785408,12.274745790599463
54,86,16785408,12.243230646355384
55,88,16785408,12.311911787681346
56,90,16785408,12.310178146719675
57,92,16785408,12.256389998561543
58,94,16785408,12.301796744225589
59,96,16785408,12.16035191355167
60,97,16785408,12.251523465640732
61,98,16785408,12.173607303551691
62,99,16785408,12.319429877836207
63,100,16785408,12.161752814850237
64,102,16785408,12.300931286476853
65,104,16785408,12.307001072666363
66,106,16785408,12.273300790561231
67,108,16785408,12.3142240686792
68,110,16785408,12.306423599019029
69,112,16785408,12.263840413942956
70,114,16785408,12.317106603305616
71,116,16785408,12.312480745024514
72,118,16785408,12.3142240686792
73,120,16785408,12.315958849481877
74,122,16785408,12.281634409105676
75,124,16785408,12.279918267553052
76,126,16785408,12.2518006826098
77,128,16785408,12.16034310387296
78,129,16785408,12.328695525714089
79,130,16785408,12.027903197259267
80,131,16785408,12.322613372995743
81,132,16785408,12.094732200243834
82,134,16785408,12.3214555480437
83,136,16785408,12.312480745024514
84,138,16785408,12.230384681241734
85,140,16785408,12.293732875433127
86,142,16785408,12.29775898297038
87,144,16785408,12.31999953025868
88,146,16785408,12.30988925402491
89,148,16785408,12.212721002313703
90,150,16785408,12.301796744225589
91,152,16785408,12.315380534908138
92,154,16785408,12.284807389002125
93,156,16785408,12.281921977118206
94,158,16785408,12.258386036661067
95,160,16785408,12.093059177821646
96,161,16785408,12.328116014409995
97,162,16785408,12.163453713694404
98,163,16785408,12.318561937339418
99,164,16785408,12.139245367346984
100,166,16785408,12.318851237249364
101,168,16785408,12.309600374889172
102,170,16785408,12.129131464015979
103,172,16785408,12.255244584204297
104,174,16785408,12.233228094417672
105,176,16785408,12.32319236707464
106,178,16785408,12.311622813612356
107,180,16785408,12.17643320788442
108,182,16785408,12.25495826406548
109,184,16785408,12.27015169003799
110,186,16785408,12.325219274896742
111,188,16785408,12.211592619241102
112,190,16785408,12.316248027136911
113,192,16785408,12.145420235073471
114,193,16785408,12.237232506140339
115,194,16785408,12.188599561409879
116,195,16785408,12.138964441689911
117,196,16785408,12.070527271825119
118,198,16785408,12.24979784858348
119,200,16785408,12.318851237249364
120,202,16785408,12.17275978800985
121,204,16785408,12.273022599799512
122,206,16785408,12.23579632432054
123,208,16785408,12.315958849481877
124,210,16785408,12.276756791547419
125,212,16785408,12.225253839918253
126,214,16785408,12.23579632432054
127,216,16785408,12.227239748599201
128,218,16785408,12.077188518999254
129,220,16785408,12.256389998561543
130,222,16785408,12.136998326096624
131,224,16785408,12.23636718852514
132,225,16785408,11.883752328372982
133,226,16785408,12.13979847773448
134,227,16785408,11.864927603434772
135,228,16785408,12.067195065402823
136,230,16785408,12.249234669490331
137,232,16785408,12.19909662743331
138,234,16785408,12.287676166660322
139,236,16785408,12.18576800778244
140,238,16785408,12.246660795805667
141,240,16785408,12.258959010718385
142,242,16785408,12.284519685857667
143,244,16785408,12.201074046398572
144,246,16785408,12.213867368701388
145,248,16785408,12.01549628484302
146,250,16785408,12.236376108700993
147,252,16785408,12.25753562704698
148,254,16785408,12.210730923788269
149,256,16785408,12.155843027234654
150,257,16785408,11.46878768602591
151,258,16785408,12.203069849880807
152,259,16785408,11.792109840640025
153,260,16785408,11.992695243620485
154,262,16785408,12.264700660166083
155,264,16785408,12.255530917722373
156,266,16785408,12.184352724263585
157,268,16785408,12.273884134717685
158,270,16785408,12.254385663921877
159,272,16785408,12.286821688403235
160,274,16785408,12.190582432043785
161,276,16785408,12.242373409204786
162,278,16785408,12.199947814419938
163,280,16785408,12.123533528682275
164,282,16785408,12.184927643542363
165,284,16785408,12.323762367514515
166,286,16785408,12.297191385361973
167,288,16785408,12.21243666566748
168,289,16785408,12.083317796131272
169,290,16785408,12.027067229564155
170,291,16785408,12.054429976128715
171,292,16785408,12.215005061262747
172,294,16785408,12.304114246256628
173,296,16785408,12.311911787681346
174,298,16785408,12.22268113303721
175,300,16785408,12.149930185744283
176,302,16785408,12.224968919400194
177,304,16785408,12.15809705235786
178,306,16785408,12.24551719911668
179,308,16785408,12.213582978673863
180,310,16785408,12.300940301034103
181,312,16785408,12.162034796268227
182,314,16785408,12.249225730557153
183,316,16785408,12.093059177821646
184,318,16785408,12.230660942404715
185,320,16785408,12.21414288417039
186,321,16785408,12.128298892980931
187,322,16785408,12.038384191909484
188,323,16785408,11.396278731876555
189,324,16785408,12.12240405586931
190,326,16785408,12.141212211079084
191,328,16785408,12.23124024020304
192,330,16785408,12.259540992323092
193,332,16785408,12.230384681241734
194,334,16785408,12.216987641381719
195,336,16785408,12.219842620115184
196,338,16785408,12.215573987027136
197,340,16785408,12.20676158886939
198,342,16785408,12.177855487156792
199,344,16785408,12.189732551350316
200,346,16785408,12.21954905609281
201,348,16785408,12.124934717644331
202,350,16785408,12.21243666566748
203,352,16785408,12.091386618182238
204,353,16785408,11.26678851641112
205,354,16785408,11.942183733696844
206,355,16785408,11.576877981223637
207,356,16785408,11.921285209016917
208,358,16785408,12.304105227046822
209,360,16785408,12.298047306584296
210,362,16785408,12.239231233088068
211,364,16785408,12.222111545082003
212,366,16785408,12.249520722240751
213,368,16785408,12.279918267553052
214,370,16785408,12.277897249993417
215,372,16785408,12.261824684640986
216,374,16785408,12.190582432043785
217,376,16785408,12.23095504058305
218,378,16785408,12.285086114274506
219,380,16785408,12.290852269523748
220,382,16785408,12.290276310326876
221,384,16785408,12.034802210306013
222,385,16785408,11.586587358398225
223,386,16785408,12.123813740566082
224,387,16785408,11.747741492980222
225,388,16785408,11.971346492341663
226,390,16785408,12.143170907449367
227,392,16785408,12.294021010289812
228,394,16785408,12.262120283472
229,396,16785408,12.177290069275017
230,398,16785408,12.203912718516342
231,400,16785408,12.23238117170027
232,402,16785408,12.176998546195298
233,404,16785408,12.185484924776333
234,406,16785408,12.128018473734826
235,408,16785408,12.106185652517283
236,410,16785408,12.029273746219667
237,412,16785408,12.218988654851989
238,414,16785408,12.292004349879718
239,416,16785408,11.94626340496884
240,417,16785408,11.810163881829466
241,418,16785408,12.065807188990442
242,419,16785408,11.89668105904466
243,420,16785408,11.943815267788274
244,422,16785408,12.219273296677617
245,424,16785408,12.169935588275385
246,426,16785408,12.067741629353556
247,428,16785408,12.061090796213836
248,430,16785408,12.216987641381719
249,432,16785408,12.277331484281229
250,434,16785408,12.266708370756177
251,436,16785408,12.171921216915985
252,438,16785408,12.171921216915985
253,440,16785408,12.058586711954414
254,442,16785408,12.259827526642656
255,444,16785408,12.256103624900058
256,446,16785408,12.161470846507639
257,448,16785408,12.006695259813277
258,449,16785408,11.56487367827076
259,450,16785408,12.136427920697583
260,451,16785408,12.012478074271593
261,452,16785408,12.075242362244149
262,454,16785408,12.004497017722025
263,456,16785408,12.23751799859292
264,458,16785408,11.953613841784573
265,460,16785408,12.320297940648215
266,461,16785408,12.248376591392852
267,462,16785408,11.89398349834048
268,464,16785408,12.093616800532581
269,466,16785408,11.961518837241785
270,468,16785408,12.258099569717205
271,470,16785408,12.127457674142374
272,472,16785408,12.027342999876756
273,474,16785408,12.179834863303997
274,476,16785408,12.169370905579287
275,478,16785408,12.192574804367865
276,480,16785408,12.037002934418753
277,481,16785408,11.784162358432019
278,482,16785408,12.056923673662888
279,483,16785408,11.866278038128108
280,484,16785408,11.990228040950795
281,486,16785408,12.1333398871775
282,488,16785408,12.10785357535468
283,490,16785408,12.194275477134383
284,492,16785408,12.20362879186648
285,494,16785408,12.295461887192154
286,496,16785408,12.259540992323092
287,498,16785408,12.233798718998989
288,500,16785408,12.209025658333067
289,502,16785408,11.778861720156206
290,504,16785408,12.205900575048648
291,506,16785408,12.241507364416842
292,508,16785408,12.142889800075814
293,510,16785408,12.026791471897328
294,512,16785408,11.92833366970156
295,513,16785408,11.697181037438432
296,514,16785408,11.867075022694301
297,515,16785408,11.860366916987221
298,516,16785408,12.064965944343657
299,518,16785408,12.084422596781021
300,519,16785408,12.284807389002125
301,520,16785408,12.149367357973114
302,522,16785408,12.012478074271593
303,524,16785408,12.232095918871511
304,526,16785408,12.237223584715835
305,528,16785408,12.202785962448175
306,530,16785408,12.289979352457935
307,532,16785408,12.318851237249364
308,534,16785408,12.157806447500702
309,536,16785408,12.129692418421943
310,538,16785408,12.165137455102059
311,540,16785408,12.252659240550681
312,542,16785408,12.24693779275927
313,544,16785408,12.011377793552441
314,545,16785408,11.488380146973773
315,546,16785408,12.05997292768934
316,547,16785408,11.733288596233695
317,548,16785408,11.930232756488438
318,550,16785408,12.262120283472
319,552,16785408,12.277044131188932
320,554,16785408,12.23751799859292
321,556,16785408,12.179826025373476
322,558,16785408,12.289412472736618
323,560,16785408,12.264700660166083
324,562,16785408,12.15442588478594
325,564,16785408,12.06968536889124
326,566,16785408,12.183786702901392
327,568,16785408,12.24780460611332
328,570,16785408,12.170500323378684
329,572,16785408,12.137560008416905
330,574,16785408,12.264691698645912
331,576,16785408,12.236947027008112
332,577,16785408,11.849114355821985
333,578,16785408,12.091395328231803
334,579,16785408,11.552902196064881
335,580,16785408,12.111208277414606
336,582,16785408,12.241516292088534
337,584,16785408,12.226099775951333
338,586,16785408,12.271003851181234
339,588,16785408,12.29458831526118
340,590,16785408,12.226393654812536
341,592,16785408,12.239802417858229
342,594,16785408,12.260105119537684
343,596,16785408,12.157806447500702
344,598,16785408,12.249520722240751
345,600,16785408,12.199380343231416
346,602,16785408,12.22581481600177
347,604,16785408,12.117363395118232
348,606,16785408,12.261538056960527
349,608,16785408,12.003672884444304
350,609,16785408,11.811227606006446
351,610,16785408,12.009719157558534
352,611,16785408,11.309298597977515
353,612,16785408,11.9970838896338
354,614,16785408,12.164573217572798
355,616,16785408,12.12857056149184
356,618,16785408,12.088042886483901
357,620,16785408,12.070796358354068
358,622,16785408,12.050838440845354
359,624,16785408,12.224960015848
360,626,16785408,12.254099383915216
361,628,16785408,12.267273157797806
362,630,16785408,12.201357854183325
363,632,16785408,12.269864672932174
364,634,16785408,12.18293776945521
365,636,16785408,12.267855929100314
366,638,16785408,12.135594347705066
367,640,16785408,11.950073613796677
368,641,16785408,11.76829948875571
369,642,16785408,12.12716853211725
370,643,16785408,11.862521068979042
371,644,16785408,12.063578580607325
372,646,16785408,12.239802417858229
373,648,16785408,12.258967963863032
374,650,16785408,12.165983909545554
375,652,16785408,12.117083481319138
376,654,16785408,12.251514523366723
377,656,16785408,12.227239748599201
378,658,16785408,12.26899473436463
379,660,16785408,12.187183620126333
380,662,16785408,12.176998546195298
381,664,16785408,12.131664935678804
382,666,16785408,12.158933719666788
383,668,16785408,12.234369396816883
384,670,16785408,12.199087761527258
385,672,16785408,12.070527271825119
386,673,16785408,11.774366945872899
387,674,16785408,11.950073613796677
388,675,16785408,11.800864461736179
389,676,16785408,12.113166045567779
390,678,16785408,12.243793273481106
391,680,16785408,12.097251320503423
392,682,16785408,11.914786326970416
393,684,16785408,12.15922437841687
394,686,16785408,12.14852321408022
395,688,16785408,12.067464003381827
396,690,16785408,12.258386036661067
397,692,16785408,12.267569019385723
398,693,16785408,12.194833613767731
399,694,16785408,12.152745106982826
400,696,16785408,12.124934717644331
401,698,16785408,12.032309028922716
402,700,16785408,12.078857152726005
403,702,16785408,12.240088030235965
404,704,16785408,12.019626208378089
405,705,16785408,11.808294518509763
406,706,16785408,12.036726720955514
407,707,16785408,11.662850710801685
408,708,16785408,12.006145623818012
409,710,16785408,12.137840869072868
410,712,16785408,12.271012821928062
411,714,16785408,12.170782710585314
412,716,16785408,12.177290069275017
413,718,16785408,12.220118405227769
414,720,16785408,12.281930963835586
415,722,16785408,12.2335223160698
416,724,16785408,11.953069054801192
417,726,16785408,12.132506738310685
418,728,16785408,12.255244584204297
419,730,16785408,12.241516292088534
420,732,16785408,12.119883201390955
421,734,16785408,12.020452533793945
422,736,16785408,11.908564877220963
423,737,16785408,10.706352025993128
424,738,16785408,11.78628063937175
425,739,16785408,11.158685480965215
426,740,16785408,11.877285888556477
427,742,16785408,12.25953203834142
428,744,16785408,12.06968536889124
429,746,16785408,12.229529241962476
430,748,16785408,12.137270384478555
431,750,16785408,12.02623999449751
432,752,16785408,11.986666095376837
433,754,16785408,12.211583735162396
434,756,16785408,12.0869374238059
435,758,16785408,12.042806346910487
436,760,16785408,12.03231765406691
437,762,16785408,11.888592045283916
438,764,16785408,11.976266378225343
439,766,16785408,11.700303845009072
440,768,16785408,11.903430317161797
441,769,16785408,11.87164087055169
442,770,16785408,12.01385370867274
443,771,16785408,11.681551322415507
444,772,16785408,11.98529667975723
445,774,16785408,12.277035151621538
446,776,16785408,12.177846652098587
447,778,16785408,12.195976624401387
448,780,16785408,12.327536557583288
449,782,16785408,12.321744983883388
450,784,16785408,12.331304000946222
451,785,16785408,12.313645917008705
452,786,16785408,12.288836648468747
453,788,16785408,12.326088153804692
454,790,16785408,12.326088153804692
455,792,16785408,12.333623572409506
456,794,16785408,12.327246849596555
457,796,16785408,12.13783209198062
458,798,16785408,12.33071518613528
459,800,16785408,11.940824462409193
460,801,16785408,12.130262190852045
461,802,16785408,12.126327470069613
462,803,16785408,12.255808316077536
463,804,16785408,12.333623572409506
464,806,16785408,12.283369008024062
465,808,16785408,12.331014115858027
466,810,16785408,12.331304000946222
467,812,16785408,12.256389998561543
468,814,16785408,12.331883812013322
469,816,16785408,12.331304000946222
470,818,16785408,12.334203601632176
471,820,16785408,12.33304359773727
472,822,16785408,12.328116014409995
473,824,16785408,12.205332549961753
474,826,16785408,12.3327445696098
475,828,16785408,12.330434386567536
476,830,16785408,12.288548756569657
477,832,16785408,11.870297609450182
478,833,16785408,11.889661522987183
479,834,16785408,12.250951186419401
480,835,16785408,12.246651860628683
481,836,16785408,12.103662810317823
482,838,16785408,12.31393498605775
483,840,16785408,12.271290921585543
484,842,16785408,12.325508887588363
485,844,16785408,12.188325197088815
486,846,16785408,12.101987316473876
487,848,16785408,12.266708370756177
488,850,16785408,12.282506141103797
489,852,16785408,12.235805243664107
490,854,16785408,12.327246849596555
491,856,16785408,12.318851237249364
492,858,16785408,11.971346492341663
493,860,16785408,12.202777091178737
494,862,16785408,12.078857152726005
495,864,16785408,12.054438633016078
496,865,16785408,11.449519657088912
497,866,16785408,12.265274224697869
498,867,16785408,12.317983378281689
499,868,16785408,12.320587322104512
500,870,16785408,12.256103624900058
501,871,16785408,12.191432431254631
502,872,16785408,12.323481884518163
503,873,16785408,12.310755972790114
504,874,16785408,12.322323896358451
505,876,16785408,12.228103775722285
506,878,16785408,12.332173737994147
507,880,16785408,12.325219274896742
508,882,16785408,12.330434386567536
509,884,16785408,12.25609467593877
510,886,16785408,12.333913580201555
511,888,16785408,12.33014454236332
512,890,16785408,12.290267311392732
513,892,16785408,12.32695715522629
514,894,16785408,12.247232674253418
515,896,16785408,12.119883201390955
516,897,16785408,11.770676196112861
517,898,16785408,12.25953203834142
518,899,16785408,12.317395834862117
519,900,16785408,12.333904517251616
520,902,16785408,12.331005057168632
521,904,16785408,12.324350518476532
522,906,16785408,12.234369396816883
523,908,16785408,12.334493636702328
524,909,16785408,12.32000857278537
525,910,16785408,12.152182018393258
526,912,16785408,12.329555838271892
527,914,16785408,12.258672516994482
528,916,16785408,12.334774621184286
529,918,16785408,12.256381049182052
530,920,16785408,12.329854711785174
531,922,16785408,12.207329746979514
532,924,16785408,12.227239748599201
533,926,16785408,12.244088003565544
534,928,16785408,12.037555399377519
535,929,16785408,11.6573995428827
536,930,16785408,12.181806042203108
537,931,16785408,12.319420836158988
538,932,16785408,12.171912390466328
539,934,16785408,12.184635754666852
540,936,16785408,12.27387515977221
541,938,16785408,12.269864672932174
542,940,16785408,12.268429788792256
543,942,16785408,12.282218545735793
544,944,16785408,12.318272651017178
545,946,16785408,12.258967963863032
546,948,16785408,12.317694119131993
547,950,16785408,12.263266983499603
548,952,16785408,12.319429877836207
549,954,16785408,12.294021010289812
550,956,16785408,12.322902863234154
551,958,16785408,12.333623572409506
552,960,16785408,12.262693606678457
553,961,16785408,11.988309807248948
554,962,16785408,12.298623994372884
555,963,16785408,12.246651860628683
556,964,16785408,12.318851237249364
557,965,16785408,12.315669685405938
558,966,16785408,12.101428921603969
559,968,16785408,12.244945480860489
560,970,16785408,12.326658422167323
561,972,16785408,12.304114246256628
