idx,og Index,data (B),bandwidth (GB/s)
0,1,33767424,12.233886865049245
1,3,33767424,12.33322181331549
2,5,33767424,12.331059989687423
3,7,33767424,12.334235429095749
4,9,33767424,12.332361496869197
5,11,33767424,12.327166116215677
6,13,33767424,12.33307766815829
7,15,33767424,12.302563405661797
8,17,33767424,12.304571768601017
9,19,33767424,12.327454133589855
10,21,33767424,12.325289832484453
11,23,33767424,12.332501121221993
12,25,33767424,11.868854095453674
13,26,33783808,11.583626205805972
14,27,33783808,12.1199734954792
15,29,33783808,12.232155936977826
16,31,33783808,12.296047291862449
17,33,33783808,12.332998698208522
18,35,33783808,12.333435431083107
19,37,33783808,12.331562650454206
20,39,33783808,12.335313284562368
21,41,33783808,12.333723601669282
22,43,33783808,12.332571000114259
23,45,33783808,12.31557715743461
24,47,33783808,12.333867692012257
25,49,33783808,12.331994780116991
26,51,33783808,12.331706690310115
27,53,33783808,12.334444087052812
28,55,33783808,12.331418613963155
29,57,33783808,12.332278381667642
30,59,33783808,12.332854628168745
31,61,33783808,12.33617359545782
32,63,33783808,12.335736668645712
33,67,33783808,11.647721313651433
34,69,33783808,12.322481434469879
35,71,33783808,12.027501352852383
36,73,33783808,12.334155882798566
37,75,33783808,12.333291350839668
38,77,33783808,12.316434717494001
39,79,33783808,12.328246163457475
40,81,33783808,11.918490664019352
41,83,33783808,12.335025039688162
42,85,33783808,12.333723601669282
43,87,33783808,12.331414112877027
44,89,33783808,12.332859130306538
45,90,33800192,12.020312078246809
46,91,33800192,12.185228846671036
47,92,33800192,11.624485842969909
48,93,33800192,12.332924305829973
49,94,33800192,11.748089034715754
50,95,33800192,12.304451164529599
51,96,33800192,12.095411499307202
52,97,33800192,12.011145426782356
53,98,33800192,11.267230180538004
54,99,33800192,12.332640812052352
55,100,33800192,11.695090650277947
56,101,33800192,12.335521355293842
57,102,33800192,11.695871692171941
58,103,33800192,12.332348332132335
59,104,33800192,11.80923099283624
60,105,33800192,12.33206486483331
61,106,33800192,11.794182221173857
62,107,33800192,12.331628440659848
63,108,33800192,11.693403470291832
64,109,33800192,12.331776911396322
65,110,33800192,11.843032359675755
66,111,33800192,12.332348332132335
67,112,33800192,12.096381126889602
68,113,33800192,12.333500333331022
69,114,33800192,12.066222479887363
70,115,33800192,12.33480109333888
71,116,33800192,11.910136067246079
72,117,33800192,12.28253299276752
73,118,33800192,12.012238197776469
74,119,33800192,12.335089188027295
75,120,33800192,11.981817517955786
76,121,33800192,12.295127955906574
77,122,33800192,11.956835362033585
78,123,33800192,12.230143949423939
79,124,33800192,12.154490609270947
80,125,33800192,12.17313850179769
81,126,33800192,12.035806677555804
82,127,33800192,12.209195061011313
83,128,33800192,12.100681393374806
84,129,33800192,12.32802574719083
85,130,33800192,11.973392297822626
86,131,33800192,12.330620733784505
87,132,33800192,12.025520999179921
88,133,33800192,12.332492320513087
89,134,33800192,11.90718227995881
90,135,33800192,11.552319405462233
91,136,33800192,11.967414826480551
92,137,33800192,12.221781404918335
93,138,33800192,12.043912282333356
94,139,33800192,12.330904134696487
95,140,33800192,12.00199274558228
96,141,33800192,12.32428135809892
97,142,33800192,11.965787953281298
98,143,33800192,12.145253532523942
99,144,33800192,11.972306582818492
100,145,33800192,11.695090650277947
101,146,33800192,11.969728798649765
102,147,33800192,12.129615328301606
103,148,33800192,12.053541670604254
104,149,33800192,12.212728626039702
105,150,33800192,11.906913826490479
106,151,33800192,12.225180763461818
107,152,33800192,11.958328645553614
108,153,33800192,12.20439427913241
109,154,33570816,12.299209748269837
110,155,33570816,12.320582800414714
111,156,33570816,12.288256380166057
112,157,33570816,12.33419906994243
113,158,33570816,12.304542673953671
114,159,33570816,12.132647050107302
115,160,33570816,11.250360173687666
116,161,33570816,12.339861746917315
117,162,33570816,11.604149462789678
118,163,33570816,12.162325603301174
119,164,33570816,11.617513815577057
120,165,33570816,12.339712065680812
121,166,33570816,11.573553366849971
122,167,33570816,12.278768451537534
123,168,33570816,11.968346151665955
124,169,33570816,12.336089073437815
125,170,33570816,12.317255736630672
126,171,33570816,12.330724244398784
127,172,33570816,12.341018497108552
128,173,33570816,12.330719715265369
129,174,33570816,12.339426320676141
130,175,33570816,12.324345994024105
131,176,33570816,12.200369018575582
132,177,33570816,12.34218453929881
133,178,33570816,12.034103325160237
134,179,33570816,12.347123377755416
135,180,33570816,12.173046694120927
136,181,33570816,12.341603759226567
137,182,33570816,12.020452533793945
138,183,33570816,12.269434172449156
139,184,33570816,12.154852753168349
140,185,33570816,12.251948238692952
141,186,33570816,11.989821221360577
142,187,33570816,12.343346263443332
143,188,33570816,12.118767532889
144,189,33570816,12.344943991280424
145,190,33570816,12.165141863413817
146,191,33570816,12.338700678556911
147,192,33570816,12.22995694664342
148,193,33570816,12.34552054576392
149,194,33570816,12.068717759565494
150,195,33570816,12.339857211068917
151,196,33570816,12.223259675146643
152,197,33570816,12.324640090341784
153,198,33570816,12.063999091538625
154,199,33570816,12.341458572748868
155,200,33570816,12.141488849595673
156,201,33570816,12.347559347393835
157,202,33570816,12.151896094945375
158,203,33570816,12.343341725032916
159,204,33570816,12.138679139877791
160,205,33570816,12.344213161030888
161,206,33570816,12.117647695807872
162,207,33570816,12.343055811904785
163,208,33570816,12.203353750522547
164,209,33570816,12.190870178922182
165,210,33570816,12.155838625659602
166,211,33570816,12.111627745884961
167,212,33570816,12.160065605527208
168,213,33570816,12.227244202034182
169,214,33570816,12.101014521224924
170,215,33570816,12.17262296062758
171,216,33570816,12.14176989210833
172,217,33570816,12.227671746897354
173,218,33587200,11.924528730604605
174,219,33587200,12.342250210284057
175,220,33587200,12.13575692932166
176,221,33587200,12.347336480653247
177,222,33587200,12.195123722382586
178,223,33587200,12.346174572332412
179,224,33587200,12.065169560477258
180,225,33587200,12.345303284587558
181,226,33587200,11.78488321501854
182,227,33587200,11.564784893940464
183,228,33587200,11.892511625288442
184,229,33587200,12.345158081919287
185,230,33587200,12.01242185820727
186,231,33587200,12.345734375132096
187,232,33587200,12.135897247823106
188,233,33587200,12.348062784416982
189,234,33587200,12.193423642619768
190,235,33587200,12.34428693763392
191,236,33587200,12.165859224312014
192,237,33587200,12.347772252658173
193,238,33587200,12.225089985109554
194,239,33587200,12.344432119810147
195,240,33587200,12.232071092503508
196,241,33587200,12.307083483718962
197,242,33587200,12.078776442732153
198,243,33587200,12.211298155754841
199,244,33587200,12.1765857255606
200,245,33587200,12.346610262325768
201,246,33587200,12.117962814704546
202,247,33587200,11.754128898844822
203,248,33587200,12.077247610688266
204,249,33587200,12.347041444154481
205,250,33587200,12.12104152208801
206,251,33587200,12.085447893308155
207,252,33587200,12.273412600097494
208,253,33587200,12.261512143158061
209,254,33587200,12.222100520692514
210,255,33587200,12.342830767851282
211,256,33587200,12.16882123601909
212,257,33587200,12.036662738925633
213,258,33587200,12.162330495340342
214,259,33587200,12.347336480653247
215,260,33587200,12.26624088537577
216,261,33587200,12.345153544390941
217,262,33587200,12.137440965525565
218,263,33587200,12.34748173457061
219,264,33587200,12.255212822086472
220,265,33587200,12.345158081919287
221,266,33587200,12.2532098497899
222,267,33587200,12.34544395292976
223,268,33587200,12.23706248125941
224,269,33587200,12.346174572332412
225,270,33587200,12.250631093227451
226,271,33587200,12.326595773962987
227,272,33587200,12.228512759272272
228,273,33587200,12.347041444154481
229,274,33587200,12.193140342075322
230,275,33587200,11.94420924272237
231,276,33587200,12.237918556949323
232,277,33587200,12.297566606998299
233,278,33587200,12.266809833987995
234,279,33587200,12.291090759652
235,280,33587200,12.326016742614325
236,281,33587200,12.34181482794796
237,282,33603584,11.842489138494416
238,283,33603584,12.34667378974167
239,284,33603584,12.050692141599178
240,285,33603584,12.347113839270952
241,286,33603584,12.159954376085368
242,287,33603584,12.284570981527585
243,288,33603584,11.98686151800263
244,289,33603584,12.258896328159002
245,290,33603584,11.875971534635969
246,291,33603584,12.348565771515633
247,292,33603584,11.914778706590155
248,293,33603584,12.319009246703276
249,294,33603584,11.933874917208694
250,295,33603584,12.274519573213718
251,296,33603584,12.007970154800532
252,297,33603584,12.27724170031892
253,298,33603584,12.127650114189858
254,299,33603584,12.299823062490345
255,300,33603584,12.048060899320504
256,301,33603584,12.34624284380068
257,302,33603584,12.171939282989863
258,303,33603584,12.340874419287905
259,304,33603584,12.181818906849113
260,305,33603584,12.30789155706425
261,306,33603584,12.049447667049028
262,307,33603584,12.235475745392343
263,308,33603584,12.19880036142352
264,309,33603584,12.256463956891027
265,310,33603584,12.168690763174371
266,311,33603584,12.295502594586605
267,312,33603584,12.224365946839866
268,313,33603584,12.332033959386429
269,314,33603584,12.162493856062103
270,315,33603584,12.264627841093654
271,316,33603584,12.187474136114488
272,317,33603584,12.320743682900815
273,318,33603584,12.096361723274121
274,319,33603584,12.29291177045143
275,320,33603584,12.18846876203755
276,321,33603584,12.319447326415137
277,322,33603584,12.181112372188991
278,323,33603584,12.1980918556292
279,324,33603584,12.194550560798774
280,325,33603584,12.271220556776461
281,326,33603584,12.096919106521812
282,327,33603584,12.318864732395708
283,328,33603584,12.250601619021404
284,329,33603584,12.301691704894855
285,330,33603584,12.116459933590132
286,331,33603584,12.343630594539555
287,332,33603584,12.154324651513722
288,333,33603584,12.325375755490626
289,334,33603584,12.005091616588267
290,335,33603584,12.346823493793076
291,336,33603584,12.207592676080283
292,337,33603584,12.34479145772764
293,338,33603584,12.18224728339483
294,339,33603584,12.342179822541322
295,340,33603584,12.189313216340498
296,341,33603584,12.345371971206022
297,342,33603584,12.275949996913074
298,343,33603584,12.282272065708995
299,344,33603584,11.931429999801164
300,345,33603584,12.342615018331971
301,346,33619968,11.898986638579085
302,347,33619968,12.342100442473166
303,348,33619968,11.980129073363573
304,349,33619968,12.346306515528928
305,350,33619968,12.114819191016144
306,351,33619968,12.343990101300122
307,352,33619968,11.85735608217346
308,353,33619968,12.34587580521847
309,354,33619968,11.887139248669856
310,355,33619968,12.108256996378683
311,356,33619968,11.95817125881747
312,357,33619968,12.344860354601128
313,358,33619968,11.969478867904108
314,359,33619968,12.346456137722242
315,360,33619968,12.084302648448897
316,361,33619968,12.342535420577251
317,362,33619968,11.956678515478437
318,363,33619968,12.223064967360894
319,364,33619968,11.944987630424148
320,365,33619968,12.007101410817901
321,366,33619968,12.070835261664865
322,367,33619968,12.224629415569801
323,368,33619968,12.148158533258416
324,369,33619968,12.343700044131891
325,370,33619968,12.075829962669774
326,371,33619968,12.341520519357521
327,372,33619968,12.25600269471916
328,373,33619968,12.345730730616781
329,374,33619968,12.105610570562959
330,375,33619968,12.348052333460902
331,376,33619968,12.181399398465837
332,377,33619968,12.32646614324966
333,378,33619968,12.202480060250256
334,379,33619968,12.347471850895872
335,380,33619968,12.154342217001851
336,381,33619968,12.343990101300122
337,382,33619968,12.100168761883785
338,383,33619968,12.207300640829429
339,384,33619968,12.240870857597248
340,385,33619968,11.916937237876756
341,386,33619968,12.106861701840339
342,387,33619968,12.013687469447612
343,388,33619968,12.137492432111026
344,389,33619968,12.192991815600589
345,390,33619968,12.179140033074258
346,391,33619968,12.323425343687171
347,392,33619968,12.19851745420109
348,393,33619968,12.300201296168787
349,394,33619968,12.170674872166162
350,395,33619968,12.316924063269923
351,396,33619968,12.131746125108661
352,397,33619968,11.983814349793688
353,398,33619968,12.174905981172696
354,399,33619968,12.34746731609069
355,400,33619968,12.23915521353196
356,401,33619968,12.345150466303435
357,402,33619968,12.265593772779113
358,403,33619968,12.326032297021731
359,404,33619968,12.318661580908621
360,405,33619968,12.336597899180324
361,406,33619968,12.000655360625034
362,407,33619968,12.341955456584873
363,408,33619968,12.14324418526953
364,409,33619968,12.344275639639335
365,410,33636352,11.901689310281748
366,411,33636352,12.34710431938566
367,412,33636352,12.057600284481254
368,413,33636352,12.345794615489927
369,414,33636352,12.069225447729275
370,415,33636352,12.346669231215353
371,416,33636352,11.846956227722911
372,417,33636352,12.345944152401591
373,418,33636352,11.796698810662791
374,419,33636352,12.346814257198378
375,420,33636352,11.920851703264768
376,421,33636352,12.346234173707304
377,422,33636352,11.755532497052934
378,423,33636352,12.346669231215353
379,424,33636352,12.009380043129918
380,425,33636352,12.229306180650514
381,426,33636352,11.897374370757298
382,427,33636352,12.28361278174758
383,428,33636352,11.968357979533454
384,429,33636352,12.347099787059173
385,430,33636352,12.009247123484087
386,431,33636352,12.345649613459246
387,432,33636352,12.205307997920082
388,433,33636352,12.348699905061828
389,434,33636352,12.13387087930323
390,435,33636352,12.34579914685827
391,436,33636352,12.113738880279582
392,437,33636352,12.24298481690676
393,438,33636352,12.065073813331917
394,439,33636352,12.344349278746112
395,440,33636352,12.014596245781576
396,441,33636352,12.346809725084839
397,442,33636352,12.110803547510896
398,443,33636352,12.330737145718636
399,444,33636352,12.122540315241855
400,445,33636352,12.334933430341506
401,446,33636352,11.95801442725244
402,447,33636352,12.349856055702276
403,448,33636352,12.100769619025451
404,449,33636352,12.346669231215353
405,450,33636352,12.241697107421624
406,451,33636352,12.127855303753877
407,452,33636352,12.30475496468767
408,453,33636352,12.32090425611799
409,454,33636352,12.34188075584239
410,455,33636352,12.339711988354509
411,456,33636352,12.296837790628384
412,457,33636352,12.339567129169366
413,458,33636352,12.3128220615232
414,459,33636352,12.343914384715372
415,460,33636352,12.26798609234302
416,461,33636352,12.34101587408744
417,462,33636352,12.33710504328358
418,463,33636352,12.206016651189762
419,464,33636352,12.33058797695939
420,465,33636352,12.338838357993511
421,466,33636352,11.854166659324557
422,467,33636352,12.345944152401591
423,468,33636352,12.123379214223233
424,469,33636352,12.34579914685827
425,470,33636352,12.129950234403173
426,471,33636352,12.34521915874576
427,472,33636352,12.06922977834917
428,473,33636352,12.348409767902547
429,474,33652736,11.890384164214584
430,475,33652736,12.311036742804756
431,476,33652736,11.814776222106756
432,477,33652736,12.348621873740928
433,478,33652736,11.982373634512127
434,479,33652736,12.346012433790031
435,480,33652736,11.807082691276731
436,481,33652736,12.344848508192241
437,482,33652736,11.710969624249376
438,483,33652736,12.229571643655259
439,484,33652736,11.840582769675935
440,485,33652736,11.996589181774366
441,486,33652736,11.718668951011937
442,487,33652736,12.34760696047546
443,488,33652736,11.964383521708168
444,489,33652736,12.12397076217009
445,490,33652736,12.03324409551867
446,491,33652736,11.98387987608999
447,492,33652736,11.969826396496629
448,493,33652736,11.98128579184876
449,494,33652736,11.965740585345594
450,495,33652736,12.316511164293292
451,496,33652736,12.165203406269216
452,497,33652736,12.23412428787008
453,498,33652736,12.008374134102473
454,499,33652736,12.227016712409794
455,500,33652736,12.007414376969333
456,501,33652736,12.23113623287644
457,502,33652736,12.071504848117662
458,503,33652736,12.127885634507138
459,504,33652736,12.049232778695968
460,505,33652736,12.343838742784119
461,506,33652736,12.32069573138161
462,507,33652736,12.15296833334778
463,508,33652736,12.34282008858967
464,509,33652736,12.33847571901067
465,510,33652736,12.342534895542599
466,511,33652736,12.335875086783982
467,512,33652736,12.294485430849234
468,513,33652736,12.312617742411708
469,514,33652736,12.258657405484875
470,515,33652736,12.29807975524243
471,516,33652736,12.026496882299293
472,517,33652736,12.344268891706829
473,518,33652736,12.159717642875906
474,519,33652736,12.347027084936972
475,520,33652736,12.096637264462753
476,521,33652736,12.281307763527591
477,522,33652736,12.103415547146794
478,523,33652736,12.33521040545271
479,524,33652736,12.114722312820257
480,525,33652736,12.336802142946434
481,526,33652736,12.207208958818802
482,527,33652736,12.332746735660912
483,528,33652736,12.183423636599287
484,529,33652736,12.3312961172217
485,530,33652736,12.147923325220937
486,531,33652736,12.33448250331886
487,532,33652736,12.171851851851851
488,533,33652736,12.160578861537138
489,534,33652736,12.122132169126917
490,535,33652736,12.203809164623799
491,536,33652736,12.071704038078197
492,537,33652736,12.332891364306347
493,538,33669120,11.806513985667001
494,539,33669120,12.27304838120567
495,540,33669120,11.9950151874328
496,541,33669120,12.186955020382102
497,542,33669120,11.944715841725364
498,543,33669120,12.194167218382345
499,544,33669120,11.896719500741666
500,545,33669120,12.298898439931444
501,546,33669120,11.72132525804474
502,547,33669120,12.312440644037562
503,548,33669120,11.762117446083064
504,549,33669120,12.300772152106841
505,550,33669120,11.766203240176257
506,551,33669120,12.32876591942701
507,552,33669120,11.856726711329229
508,553,33669120,12.325150883630622
509,554,33669120,12.05666170350365
510,555,33669120,12.323418584435192
511,556,33669120,11.822051528918786
512,557,33669120,11.914384048816634
513,558,33669120,12.039679415042949
514,559,33669120,12.30711195670649
515,560,33669120,12.327028090761809
516,561,33669120,12.303792861128683
517,562,33669120,12.330066225941643
518,563,33669120,12.328472485403726
519,564,33669120,12.331082281269559
520,565,33669120,12.186955020382102
521,566,33669120,12.330066225941643
522,567,33669120,12.326017215872753
523,568,33669120,12.333968791715694
524,569,33669120,12.328188093449157
525,570,33669120,11.7515995262938
526,571,33669120,12.329199324457933
527,572,33669120,12.087857722160132
528,573,33669120,12.329777245235315
529,574,33669120,12.06981388627694
530,575,33669120,12.332093987150406
531,576,33669120,12.03856876376364
532,577,33669120,12.336287109213986
533,578,33669120,12.038159854637298
534,579,33669120,12.330499722400859
535,580,33669120,12.060397412481029
536,581,33669120,12.331655861993188
537,582,33669120,12.035814544233936
538,583,33669120,12.233338407982144
539,584,33669120,12.119219958252929
540,585,33669120,12.335853205738612
541,586,33669120,12.085640505434911
542,587,33669120,12.329777245235315
543,588,33669120,12.059287254930755
544,589,33669120,12.334407081241064
545,590,33669120,12.096347935555354
546,591,33669120,12.330499722400859
547,592,33669120,12.003512375848459
548,593,33669120,12.331226800517873
549,594,33669120,12.117126406129044
550,595,33669120,12.327465887139411
551,596,33669120,11.99816548350806
552,597,33669120,12.332234013095146
553,598,33669120,12.019985041564103
554,599,33669120,12.309271679343682
555,600,33669120,12.071198629289789
556,601,33669120,12.302066560048406
557,602,33685504,11.61370068646856
558,603,33685504,12.27715895812817
559,604,33685504,11.947815588216725
560,605,33685504,12.33230422279456
561,606,33685504,11.84712669711903
