idx,og Index,data (B),bandwidth (GB/s)
0,0,67338240,12.334278302221163
1,2,67338240,12.351508843922483
2,4,67338240,12.352378885648358
3,6,67338240,12.302835243666085
4,8,67338240,12.354699596269274
5,9,67371008,11.47391108047814
6,10,67371008,12.355198669612406
7,12,67371008,12.354763646473096
8,14,67371008,12.353531247255244
9,16,67371008,12.240194183224082
10,18,67371008,12.249167279994648
11,20,67371008,12.354688879956106
12,22,67371008,12.352156415526412
13,24,67371008,12.353748711604153
14,26,67371008,12.35469114559484
15,28,67371008,12.29961988043057
16,30,67371008,12.35440115059069
17,32,67371008,12.353166558606345
18,34,67371008,12.252446451590375
19,36,67371008,12.352516514849292
20,38,67371008,12.354038675979337
21,39,67371008,11.523524691908117
22,42,67371008,12.356936802101217
23,44,67371008,12.355271176447395
24,46,67371008,12.35200921115716
25,48,67371008,12.354038675979337
26,50,67371008,12.353748711604153
27,52,67371008,12.354398885058314
28,54,67371008,12.298182937343366
29,56,67371008,12.273877727626743
30,58,67371008,12.236281475669472
31,60,67371008,12.295812715143846
32,62,67371008,12.3077426728283
33,64,67371008,12.352081680562016
34,66,67371008,12.353531247255244
35,68,67371008,12.354688879956106
36,69,67371008,12.297893344159164
37,72,67371008,12.35490865078237
38,73,67403776,11.312535769274794
39,74,67403776,12.351495061053098
40,76,67403776,12.354680438614242
41,78,67403776,12.355117509098557
42,80,67403776,12.354100745163475
43,82,67403776,12.084759981246364
44,84,67403776,12.354827635064703
45,86,67403776,12.354247927800982
46,88,67403776,12.24728685100284
47,90,67403776,12.30229611135984
48,91,67403776,11.53885577597796
49,94,67403776,12.35671205945702
50,96,67403776,12.354390585088757
51,98,67403776,12.330380061758206
52,100,67403776,12.354030551602223
53,102,67403776,12.354827635064703
54,104,67403776,12.356274876150867
55,106,67403776,12.354392849516712
56,108,67403776,12.354247927800982
57,110,67403776,12.302942812225812
58,112,67403776,12.353450919135065
59,114,67403776,12.353161123297618
60,116,67403776,12.353013966554164
61,118,67403776,12.249281076538816
62,120,67403776,12.330165780218875
63,122,67403776,12.251846035277524
64,124,67403776,12.354320388233846
65,125,67403776,12.328289443240644
66,127,67403776,12.349320349074109
67,129,67403776,12.3183399755438
68,132,67403776,12.353231306979295
69,134,67403776,12.355914732832977
70,136,67403776,12.35598721281959
71,137,67436544,11.457597665139986
72,138,67436544,12.354022435131188
73,140,67436544,12.354819130212068
74,142,67436544,12.354891562132956
75,144,67436544,12.347218501856297
76,146,67436544,12.355398609360133
77,148,67436544,12.353587917483916
78,150,67436544,12.354384556521
79,152,67436544,12.327644789155212
80,154,67436544,12.356630183055707
81,156,67436544,12.35445471999531
82,158,67436544,12.353877592519146
83,160,67436544,12.344470102390765
84,162,67436544,12.353660334969154
85,164,67436544,12.354746699140454
86,166,67436544,12.354674268918103
87,168,67436544,12.353947750235221
88,170,67436544,12.353805172486753
89,172,67436544,12.35452941102112
90,173,67436544,11.601473104759068
91,176,67436544,12.352861526557815
92,178,67436544,12.351415787654656
93,180,67436544,12.355471048075762
94,182,67436544,12.353585654451182
95,184,67436544,12.35279138117843
96,185,67436544,12.317410960865741
97,190,67436544,12.350836682033355
98,192,67436544,12.354891562132956
99,194,67436544,12.353153430401415
100,196,67436544,12.35271671116608
101,198,67436544,12.35445698334646
102,200,67436544,12.31878124036975
103,201,67469312,11.478390225694639
104,202,67469312,12.354593448794201
105,204,67469312,12.354955427766539
106,206,67469312,12.351840840321858
107,208,67469312,12.35336287892867
108,210,67469312,12.194671378541498
109,212,67469312,12.355172625331567
110,214,67469312,12.35386955447797
111,216,67469312,12.3544486631442
112,218,67469312,12.219974092738722
113,220,67469312,12.29766597142618
114,222,67469312,12.24374871949262
115,224,67469312,12.296587903547985
116,226,67469312,12.247515981655587
117,228,67469312,12.204341874108225
118,230,67469312,12.295442803557204
119,232,67469312,12.35510022529472
120,234,67469312,12.355317427950844
121,236,67469312,12.30139696212382
122,238,67469312,12.354883030275174
123,240,67469312,12.354883030275174
124,241,67469312,11.490214825099844
125,244,67469312,12.352639128806915
126,245,67469312,12.280902246880142
127,247,67469312,11.486396389417834
128,250,67469312,12.355027826106383
129,252,67469312,12.355245026216936
130,254,67469312,12.35662080427825
131,256,67469312,12.34554860393422
132,258,67469312,12.34894932193565
133,260,67469312,12.355679449348981
134,262,67469312,12.304768907992145
135,264,67469312,12.348587694809789
136,265,67502080,11.48396691970879
137,266,67502080,12.343666339950554
138,268,67502080,12.35291878581321
139,270,67502080,12.354076316922256
140,272,67502080,12.1219273881212
141,274,67502080,12.35248476756817
142,276,67502080,12.311535352533143
143,278,67502080,12.354367994717252
144,280,67502080,12.354802145313254
145,282,67502080,12.35364447819173
146,284,67502080,12.295819185987206
147,286,67502080,12.355308692909022
148,288,67502080,12.353135806373217
149,290,67502080,12.354150930861165
150,292,67502080,12.350968203732366
151,294,67502080,12.353933874632482
152,296,67502080,12.35451270819229
153,298,67502080,12.356177156859856
154,300,67502080,12.301196915137114
155,302,67502080,12.303636368938777
156,304,67502080,12.355091595996194
157,306,67502080,12.302634013019249
158,308,67502080,12.301770817235216
159,310,67502080,12.354078577937466
160,312,67502080,12.355381060242067
161,314,67502080,12.354802145313254
162,316,67502080,12.354727523508034
163,318,67502080,12.353499785055726
164,320,67502080,12.355453428422853
165,322,67502080,12.354582805000542
166,324,67502080,12.300766523702755
167,326,67502080,12.354440351030997
168,328,67502080,12.352921046404743
169,329,67534848,11.476421156630773
170,330,67534848,12.355225374746437
171,332,67534848,12.354070449915277
172,333,67534848,11.533116007850769
173,336,67534848,12.353853501827336
174,338,67534848,12.246039045251061
175,340,67534848,12.353272751218228
176,342,67534848,12.141486979985514
177,344,67534848,12.3550829750836
178,346,67534848,12.354721339899848
179,348,67534848,12.30487442477065
180,350,67534848,12.35443204699506
181,352,67534848,12.354068190000088
182,354,67534848,12.353851241991519
183,356,67534848,12.35312813699007
184,358,67534848,12.352985785666114
185,360,67534848,12.352262781973247
186,362,67534848,12.35363656135885
187,364,67534848,12.354574431653539
188,366,67534848,12.354215086207134
189,368,67534848,12.35471907974652
190,369,67534848,12.305804905496453
191,371,67534848,11.611419328350049
192,374,67534848,12.354070449915277
193,376,67534848,12.352624273240261
194,378,67534848,12.301001549855005
195,380,67534848,12.354285145628511
196,382,67534848,12.247531446312765
197,384,67534848,12.341860904986554
198,386,67534848,12.350889308094436
199,388,67534848,12.354070449915277
200,390,67534848,12.354068190000088
201,392,67534848,12.35443204699506
202,393,67567616,11.491237728372386
203,394,67567616,12.352903665524877
204,396,67567616,12.355435842999787
205,398,67567616,12.352111020457112
206,400,67567616,12.353411824846317
207,402,67567616,12.35485522531721
208,404,67567616,12.355002068991874
209,406,67567616,12.353917767213407
210,408,67567616,12.35485522531721
211,410,67567616,12.353628652214892
212,412,67567616,12.353481841185333
213,414,67567616,12.285986099271797
214,416,67567616,12.136137166718186
215,418,67567616,12.353484099790128
216,420,67567616,12.353990048077494
217,422,67567616,12.355291248279533
218,424,67567616,12.342796599719962
219,426,67567616,12.353770949312098
220,428,67567616,12.352327802164192
221,429,67567616,12.311560338066931
222,431,67567616,11.625494126741799
223,434,67567616,12.354206895744698
224,436,67567616,12.353843228458175
225,438,67567616,12.354134612343124
226,440,67567616,12.353554116948423
227,442,67567616,12.355216692949323
228,444,67567616,12.345899845401297
229,446,67567616,12.300085340882942
230,448,67567616,12.352327802164192
231,450,67567616,12.34034397479756
232,452,67567616,12.334646738733582
233,454,67567616,12.29808165362524
234,456,67567616,12.35196650354622
235,457,67600384,11.511093924033002
236,458,67600384,12.338394236469458
237,459,67600384,11.53321521522717
238,460,67600384,12.35441320525754
239,461,67600384,11.458894416210786
240,462,67600384,12.35470221681575
241,463,67600384,11.474951308120044
242,464,67600384,12.355427063093288
243,465,67600384,11.510090426911257
244,466,67600384,12.352753908409236
245,467,67600384,11.519442271307566
246,468,67600384,12.354126464965377
247,469,67600384,11.465486791104937
248,470,67600384,12.355135759507553
249,471,67600384,11.471025812715865
250,472,67600384,12.297883611744194
251,473,67600384,11.496435189980064
252,474,67600384,12.354921242393587
253,475,67600384,11.478756694700596
254,476,67600384,12.357809945274957
255,477,67600384,11.504196455161969
256,478,67600384,12.192059191029005
257,479,67600384,11.508710904016024
258,480,67600384,12.3534017712777
259,481,67600384,11.463120671043203
260,482,67600384,12.306841308734112
261,483,67600384,11.552514853698312
262,484,67600384,12.353257294228065
263,485,67600384,11.534663600101627
264,486,67600384,12.27958345564407
265,487,67600384,10.946632876956334
266,488,67600384,10.827186590765743
267,489,67600384,9.970600759206787
268,490,67600384,10.450895448042493
269,491,67600384,9.776339166467695
270,492,67600384,10.506199166253907
271,493,67600384,9.712557906846467
272,494,67600384,10.496227124643232
273,495,67600384,9.694862254143061
274,496,67600384,10.604665492943937
275,497,67600384,9.945440740148442
276,498,67600384,10.545744480870736
277,499,67600384,11.492119867569372
278,500,67600384,12.35282388335492
279,501,67600384,11.617316095579723
280,502,67600384,12.35347401106982
281,503,67600384,11.540523824132293
282,504,67600384,12.353040584989898
283,505,67600384,11.520510226184165
284,506,67600384,12.303541943919464
285,507,67600384,11.495995300953584
286,508,67600384,12.354632220588147
287,509,67600384,11.635872917022756
288,510,67600384,12.357812204367072
289,511,67600384,11.558582959975556
290,512,67600384,12.355065758367356
291,513,67600384,11.507016346338798
292,514,67600384,12.240237560657638
293,515,67600384,11.56111321942509
294,516,67600384,12.350298515615822
295,517,67600384,11.513477931121521
296,518,67600384,12.35441320525754
297,519,67600384,11.533467082119355
298,520,67600384,12.33270380954327
299,521,67141632,10.36761232928367
300,522,67141632,12.349953187567943
301,523,67141632,10.504014942435049
302,524,67141632,12.348497240599121
303,525,67141632,10.828020571771388
304,526,67141632,12.298482070095247
305,527,67141632,10.758121832047271
306,528,67141632,12.351479915627866
307,529,67141632,10.970410349384535
308,530,67141632,12.352061625612484
309,531,67141632,10.902233182285162
310,532,67141632,12.234514303957061
311,533,67141632,11.00528057046421
312,534,67141632,12.25609467593877
313,535,67141632,10.931371573751996
314,536,67141632,12.248868183927774
315,537,67141632,10.941974882308182
316,538,67141632,12.304756898990737
317,539,67141632,10.922778613153184
318,540,67141632,12.29581315213474
319,541,67141632,10.989716991385214
320,542,67141632,12.253303237976214
321,543,67141632,10.879677163069173
322,544,67141632,12.301366253925615
323,545,67141632,11.069146024766324
324,546,67141632,12.297400849807769
325,547,67141632,10.964161747011955
326,548,67141632,12.354023028266546
327,549,67141632,11.114589058239428
328,550,67141632,12.301582622247441
329,551,67141632,10.962042279735899
330,552,67141632,12.261970242890321
331,553,67141632,11.121246132338618
332,554,67141632,12.354168510516152
333,555,67141632,10.907277238410812
334,556,67141632,12.327022787914084
335,557,67141632,11.097130088126988
336,558,67141632,12.354604977824263
337,559,67141632,10.888991746688701
338,560,67141632,12.355698554782776
339,561,67141632,10.931257671353556
340,562,67141632,12.354095768963049
341,563,67141632,10.885093879626174
342,564,67141632,12.353879822523552
343,565,67141632,11.009958243854317
344,566,67141632,12.352350228634348
345,567,67141632,11.008514093310055
346,568,67141632,12.353659337632537
347,569,67141632,11.094900237557951
348,570,67141632,12.354313996192225
349,571,67141632,10.947855461165979
350,572,67141632,12.354313996192225
351,573,67141632,10.95534378204715
352,574,67141632,12.351843477947325
353,575,67141632,10.998242682759027
354,576,67141632,12.354750473780467
355,577,67141632,11.078731332939961
356,578,67141632,12.198591291355017
357,579,67141632,10.932624656816905
358,580,67141632,12.354532231131229
359,581,67141632,10.911192785071952
360,582,67141632,12.353295668411308
361,583,67141632,11.02882289970832
362,584,67141632,12.355259736615231
363,585,67174400,11.47381853628808
364,586,67174400,12.302104663047517
365,587,67174400,11.521239060084891
366,588,67174400,12.305205528535051
367,589,67174400,11.394040918499355
368,590,67174400,12.356196409635253
369,591,67174400,11.475135674299002
370,592,67174400,12.35510555042096
371,593,67174400,11.485306626657946
372,594,67174400,12.294755368330733
373,595,67174400,11.54334976825455
374,596,67174400,12.35430570940464
375,597,67174400,11.469555591942777
376,598,67174400,12.35357867106857
377,599,67174400,11.466548361442488
378,600,67174400,12.30686477277578
379,601,67174400,11.473003316654133
380,602,67174400,12.354523837593069
381,603,67174400,11.501416052267832
382,604,67174400,12.353869476134244
383,605,67174400,11.498581044451935
384,606,67174400,12.258498130322822
385,607,67174400,11.503054694067385
386,608,67174400,12.252130394109003
387,609,67174400,11.504378553351936
388,610,67174400,12.261431571200355
389,611,67174400,11.53865445118629
390,612,67174400,12.299942193875188
391,613,67174400,11.537829992614348
392,614,67174400,12.353651371051463
393,615,67174400,11.537005651852223
394,616,67174400,12.294465089447035
395,617,67174400,11.482039912217802
396,618,67174400,12.248627384765689
397,619,67174400,11.496693783189672
398,620,67174400,12.34166743984589
399,621,67174400,11.511698766613495
400,622,67174400,12.279580251224084
401,623,67174400,11.520290641478836
402,624,67174400,12.354669260664608
403,625,67174400,11.49631404428281
404,626,67174400,12.24505271754189
405,627,67174400,11.486249293591497
406,628,67174400,12.353215183988693
407,629,67174400,11.492539662661223
408,630,67174400,12.354087588918501
409,631,67174400,11.5149823815339
410,632,67174400,12.352924409725382
411,633,67174400,11.493357661086385
412,634,67174400,12.35510555042096
413,635,67174400,11.487569287292352
414,636,67174400,12.299653922091181
415,637,67174400,11.435628032255995
416,638,67174400,12.354523837593069
417,639,67174400,11.52180620997884
418,640,67174400,12.354526109802233
419,641,67174400,11.521934666316303
420,642,67174400,12.354814687159688
421,643,67174400,11.500659913503307
422,644,67174400,12.354233001720136
423,645,67174400,11.567329952273468
424,646,67174400,12.331445034307148
425,647,67174400,11.498520028401213
426,648,67174400,12.354160294891429
427,649,67207168,11.444385960938959
428,650,67207168,12.354878838588775
429,651,67207168,11.53793903227274
430,652,67207168,12.354227029562791
431,653,67207168,11.518828276187243
432,654,67207168,12.354224758571437
433,655,67207168,11.519082959402992
434,656,67207168,12.353282369224491
435,657,67207168,11.469888269262407
436,658,67207168,12.354806159611115
437,659,67207168,11.546312008206629
438,660,67207168,12.352844150384984
439,661,67207168,11.52230399556713
440,662,67207168,12.355169563050511
441,663,67207168,11.526795913088996
442,664,67207168,12.354152087288952
443,665,67207168,11.42837942118031
444,666,67207168,12.355024199109394
445,667,67207168,11.55126539037652
446,668,67207168,12.355169563050511
447,669,67207168,11.566917463012185
448,670,67207168,12.353570747805774
449,671,67207168,11.532047178201402
450,672,67207168,12.35444277754871
451,673,67207168,11.532555746752868
452,674,67207168,12.35495151842153
453,675,67207168,11.528124594757596
454,676,67207168,12.355024199109394
455,677,67207168,11.5966801141599
456,678,67207168,12.35408168779933
457,679,67207168,11.474899712048298
458,680,67207168,12.354733481488536
459,681,67207168,11.574054770094385
460,682,67207168,12.351829327687385
461,683,67207168,11.527365310584766
462,684,67207168,12.355169563050511
463,685,67207168,11.574184330914724
464,686,67207168,12.342463149647974
465,687,67207168,11.49525084682912
466,688,67207168,12.344784655158954
467,689,67207168,11.53375709649413
468,690,67207168,12.353207438411033
469,691,67207168,11.540855508616682
470,692,67207168,12.352483154076014
471,693,67207168,11.51276658762191
472,694,67207168,12.35451772334935
473,695,67207168,11.52711223808632
474,696,67207168,12.353861410708296
475,697,67207168,11.49455879626494
476,698,67207168,12.353134779096388
477,699,67207168,11.541364854384804
478,700,67207168,12.35495151842153
479,701,67207168,11.51466017985283
480,702,67207168,12.33260648446083
481,703,67207168,11.518954629243199
482,704,67207168,12.353863681566068
483,705,67207168,11.544219608101804
484,706,67207168,12.35538761537589
485,707,67207168,11.540857490419706
486,708,67207168,12.352991733568505
487,709,67207168,11.499719724227804
488,710,67207168,12.353718348351672
489,711,67207168,11.569147548049877
490,712,67207168,12.353643412249133
491,713,67239936,11.533365488652214
492,714,67239936,12.353272325061129
493,715,67239936,11.512195422613884
494,716,67239936,12.246214715833457
495,717,67239936,11.395075472110594
496,718,67239936,12.354216523467981
497,719,67239936,11.484635868888512
498,720,67239936,12.353272325061129
499,721,67239936,11.51825355427708
500,722,67239936,12.247925646787266
501,723,67239936,11.553658581847198
502,724,67239936,12.35465235603114
503,725,67239936,11.496952124997499
504,726,67239936,12.076242036569282
505,727,67239936,11.50734286917145
506,728,67239936,12.355887381969833
507,729,67239936,11.438123587988326
508,730,67239936,12.354143887696978
509,731,67239936,11.532730500036276
510,732,67239936,12.355306162536376
511,733,67239936,11.527163003737417
512,734,67239936,12.353127076577518
513,735,67239936,11.523119265426153
514,736,67239936,12.354509345081764
515,737,67239936,11.521223814207238
516,738,67239936,12.13391349038381
517,739,67239936,11.567522206515562
518,740,67239936,12.354727267849787
519,741,67239936,11.514718869515198
520,742,67239936,12.35450707509339
521,743,67239936,11.471283208577606
522,744,67239936,12.354727267849787
523,745,67239936,11.467524992287041
524,746,67239936,12.350733238235291
525,747,67239936,11.545784556897472
526,748,67239936,12.35356510191701
527,749,67239936,11.53057878450367
528,750,67239936,12.353127076577518
529,751,67239936,11.533555405372955
530,752,67239936,12.35465235603114
531,753,67239936,11.495633228087668
532,754,67239936,12.351962942606303
533,755,67239936,11.498084534257877
534,756,67239936,12.297027258497328
535,757,67239936,11.541474165542384
536,758,67239936,12.299330578480651
537,759,67239936,11.513709358014202
538,760,67239936,12.315550191867443
539,761,67239936,11.501420146217331
540,762,67239936,12.355160866221814
541,763,67239936,11.447907290250184
542,764,67239936,12.353780721653292
543,765,67239936,11.540457976748462
544,766,67239936,12.35450707509339
545,767,67239936,11.490288014493771
546,768,67239936,12.354942928157335
547,769,67239936,11.495002387386394
548,770,67239936,12.353199700392366
549,771,67239936,11.515919866659086
550,772,67239936,12.285667249950166
551,773,67239936,11.53805192746052
552,774,67239936,12.299688300285359
553,775,67239936,11.47021672827962
554,776,67239936,12.353272325061129
555,777,67272704,11.532592707895471
556,778,67272704,12.273066672893869
557,779,67272704,11.483767773988323
558,780,67272704,12.303595991533593
559,781,67272704,11.444507597183815
560,782,67272704,12.268554371201223
561,783,67272704,11.50192560175803
