idx,og Index,data (B),bandwidth (GB/s)
0,0,67305472,10.990105463777402
1,1,67305472,12.354410973789852
2,2,67305472,10.994356580232676
3,3,67305472,12.354989275162525
4,5,67305472,12.354120709586496
5,7,67305472,12.30475729422652
6,9,67305472,12.353757898512127
7,11,67305472,12.333691402778282
8,13,67305472,12.352161782912532
9,15,67305472,12.34194191727207
10,16,67305472,11.106170816181084
11,17,67305472,12.333185151685845
12,18,67305472,11.080658661143799
13,19,67305472,12.335644474941983
14,21,67305472,12.354410973789852
15,23,67305472,12.353903020384669
16,25,67305472,12.340056986993757
17,27,67305472,12.353467664995321
18,29,67305472,12.35520927068338
19,31,67305472,12.353612780049051
20,32,67305472,10.905201001511859
21,33,67305472,12.353757898512127
22,34,67305472,11.009952973492544
23,35,67305472,12.35528184824395
24,37,67305472,12.276672916377484
25,39,67305472,12.352887238871467
26,41,67305472,12.305549186930778
27,43,67305472,12.353830459022207
28,45,67305472,12.353757898512127
29,47,67305472,12.314408681080367
30,48,67321856,10.986751146339262
31,49,67321856,12.354517909060997
32,50,67321856,12.315461771350694
33,51,67321856,12.284895888742641
34,52,67321856,12.247492216816843
35,54,67321856,12.298686897436674
36,56,67321856,12.273073087672026
37,58,67321856,12.264985615638118
38,60,67321856,12.207764918150207
39,62,67321856,12.226210623906377
40,64,67321856,12.287191868191195
41,65,67321856,12.354805853946436
42,66,67321856,12.27006447438567
43,67,67321856,12.160203921647962
44,68,67321856,12.250416206060441
45,70,67321856,11.967623599815976
46,73,67321856,12.353717628812214
47,75,67321856,12.35437054088703
48,77,67321856,12.34668506514109
49,79,67321856,12.352774655418099
50,80,67321856,10.96762083314802
51,81,67321856,12.296096900508287
52,82,67321856,10.966134441557832
53,83,67321856,12.354805853946436
54,85,67321856,12.274789440836035
55,87,67321856,12.352992251885468
56,89,67321856,12.355531443887209
57,91,67321856,12.355531443887209
58,93,67321856,12.352559333126974
59,95,67321856,12.353717628812214
60,96,67321856,10.969565184094439
61,97,67321856,12.354878409105508
62,98,67321856,10.92451001710356
63,99,67321856,12.35313732045599
64,101,67321856,12.353862714420407
65,103,67321856,12.353572546611797
66,105,67321856,12.353572546611797
67,107,67321856,12.354660746184788
68,109,67321856,12.35313732045599
69,111,67321856,12.351469237580162
70,112,67321856,10.982164751420367
71,113,67321856,12.353790171190331
72,114,67321856,11.025965662564964
73,115,67321856,12.353790171190331
74,117,67321856,12.353429734648966
75,119,67321856,12.353935258502455
76,121,67321856,12.35437054088703
77,123,67321856,12.353935258502455
78,125,67321856,12.35284718672212
79,127,67321856,12.355966838762015
80,128,67321856,11.000367976020774
81,129,67321856,12.351469237580162
82,130,67321856,11.03302013880376
83,131,67321856,12.353717628812214
84,133,67321856,12.352919718877905
85,135,67321856,12.353209856018978
86,137,67321856,12.338066154916168
87,139,67321856,12.354878409105508
88,141,67321856,12.35313732045599
89,143,67321856,12.35168678805919
90,144,67321856,10.994906421749848
91,145,67321856,12.353790171190331
92,146,67321856,10.979241781288835
93,147,67321856,12.283461337265685
94,149,67321856,12.353500006789467
95,151,67321856,12.353500006789467
96,153,67321856,12.353862714420407
97,155,67321856,12.353209856018978
98,157,67321856,12.353645087286042
99,159,67321856,12.354878409105508
100,160,67321856,10.906441929738984
101,161,67321856,12.354152895860592
102,162,67321856,10.89830616305534
103,163,67321856,12.354733299639536
104,165,67321856,12.352774655418099
105,167,67321856,12.354152895860592
106,169,67321856,12.353135053733372
107,171,67321856,12.35604167534643
108,173,67321856,12.352919718877905
109,175,67321856,12.353572546611797
110,176,67321856,10.84784321270355
111,177,67321856,12.352919718877905
112,178,67321856,10.90084728596302
113,179,67321856,12.355821703727603
114,181,67321856,12.352194435647611
115,183,67321856,12.355966838762015
116,185,67321856,12.353500006789467
117,187,67321856,12.355386319080985
118,189,67321856,12.351757040371629
119,191,67321856,12.355458881057945
120,192,67321856,10.869194497355592
121,193,67321856,12.353717628812214
122,194,67321856,10.895484082301687
123,195,67321856,12.355749137488974
124,197,67321856,12.353572546611797
125,199,67321856,12.352412011673918
126,201,67321856,12.353354929700485
127,203,67321856,12.355821703727603
128,205,67321856,12.353209856018978
129,207,67321856,12.353572546611797
130,208,67321856,10.903220070052715
131,209,67321856,12.35313732045599
132,210,67321856,10.863413606131108
133,211,67321856,12.354225443350686
134,213,67321856,12.352194435647611
135,215,67321856,12.354660746184788
136,217,67321856,12.353862714420407
137,219,67321856,12.352704391529567
138,221,67321856,12.353427467819035
139,223,67321856,12.354443090933314
140,224,67321856,10.859377996751633
141,225,67321856,12.355241197683915
142,226,67321856,10.870430048321378
143,227,67321856,12.355096079695882
144,229,67321856,12.354080349222533
145,231,67321856,12.353500006789467
146,233,67321856,12.35190434620193
147,235,67321856,12.355966838762015
148,237,67321856,12.353645087286042
149,239,67321856,12.35190434620193
150,240,67321856,10.85444576618956
151,241,67321856,12.352341751910826
152,242,67321856,10.88584360294026
153,243,67321856,12.352266960138065
154,245,67321856,12.355676572102709
155,247,67321856,12.353425200989935
156,249,67321856,12.332424791593812
157,251,67321856,12.351976867285961
158,253,67321856,12.355241197683915
159,255,67321856,12.354152895860592
160,256,67321856,10.861564528773236
161,257,67321856,12.353427467819035
162,258,67321856,10.894695924667488
163,259,67321856,12.35494869772851
164,261,67321856,12.355023521980215
165,263,67321856,12.354515641831691
166,265,67321856,12.355531443887209
167,267,67321856,12.352992251885468
168,269,67321856,12.355168638263775
169,271,67321856,12.355676572102709
170,272,67321856,10.888097156929673
171,273,67321856,12.355313757956313
172,274,67321856,10.890069782199756
173,275,67321856,12.353427467819035
174,277,67321856,12.355313757956313
175,279,67321856,12.357200624230678
176,281,67321856,12.354878409105508
177,283,67321856,12.354950965116762
178,285,67321856,12.334740832839554
179,287,67321856,12.355894270818613
180,288,67321856,10.818501183943999
181,289,67321856,12.354227710473479
182,290,67321856,10.796292156418117
183,291,67321856,12.353572546611797
184,293,67321856,12.357055460210534
185,295,67321856,12.326140841501404
186,297,67321856,12.353500006789467
187,299,67321856,12.354950965116762
188,301,67321856,12.312000010241428
189,303,67321856,12.353572546611797
190,304,67321856,10.809662852827737
191,305,67321856,12.35378790422812
192,306,67321856,10.854501769209215
193,307,67321856,12.352266960138065
194,309,67321856,12.332137888991104
195,311,67321856,12.355313757956313
196,313,67321856,12.354443090933314
197,315,67321856,12.325994149525274
198,317,67321856,12.352629595365286
199,319,67321856,12.343280413191472
200,320,67321856,10.840965869290413
201,321,67321856,12.35313732045599
202,322,67321856,10.842083258848406
203,323,67321856,12.355821703727603
204,325,67321856,12.354443090933314
205,327,67321856,12.355461148633458
206,329,67321856,12.353790171190331
207,331,67321856,12.355238930189135
208,333,67321856,12.353427467819035
209,335,67321856,12.352194435647611
210,336,67321856,10.810773798502817
211,337,67321856,12.3553114904349
212,338,67321856,10.88973156710596
213,339,67321856,12.354515641831691
214,341,67321856,12.352339485480163
215,343,67321856,12.353790171190331
216,345,67321856,12.355168638263775
217,347,67321856,12.354443090933314
218,349,67321856,12.353352662898008
219,351,67321856,12.353497739933745
220,352,67321856,10.812385075401137
221,353,67321856,12.354660746184788
222,354,67321856,10.860947725466946
223,355,67321856,12.353717628812214
224,357,67321856,12.354733299639536
225,359,67321856,12.356184547706736
226,361,67321856,12.353935258502455
227,363,67321856,12.354225443350686
228,365,67321856,12.355168638263775
229,367,67321856,12.354440823731471
230,368,67321856,10.853719529369126
231,369,67321856,12.354297991692826
232,370,67321856,10.953345274515122
233,371,67321856,12.354152895860592
234,373,67321856,12.355604007568791
235,375,67321856,12.355241197683915
236,377,67321856,12.355241197683915
237,379,67321856,12.353862714420407
238,381,67321856,12.355096079695882
239,383,67321856,12.355821703727603
240,384,67321856,10.880101260372943
241,385,67321856,12.353790171190331
242,386,67321856,10.834768541154409
243,387,67321856,12.353790171190331
244,389,67321856,12.354297991692826
245,391,67321856,12.354080349222533
246,393,67321856,12.354805853946436
247,395,67321856,12.354878409105508
248,397,67321856,12.353209856018978
249,399,67321856,12.353935258502455
250,400,67321856,10.887420992768927
251,401,67321856,12.354878409105508
252,402,67321856,10.826516450480023
253,403,67321856,12.354225443350686
254,405,67321856,12.353064785744824
255,407,67321856,12.355313757956313
256,409,67321856,12.353209856018978
257,411,67321856,12.353352662898008
258,413,67321856,12.353354929700485
259,415,67321856,12.355168638263775
260,416,67321856,10.847563546810571
261,417,67321856,12.352774655418099
262,418,67321856,10.814497130912047
263,419,67321856,12.356111977206062
264,421,67321856,12.354515641831691
265,423,67321856,12.354878409105508
266,425,67321856,12.355241197683915
267,427,67321856,12.354515641831691
268,429,67321856,12.352339485480163
269,431,67321856,12.355458881057945
270,432,67321856,10.826685338913993
271,433,67321856,12.354660746184788
272,434,67321856,10.873690513128102
273,435,67321856,12.327946567186371
274,437,67321856,12.291932281573164
275,439,67321856,12.353645087286042
276,441,67321856,12.332860818746019
277,443,67321856,12.35437054088703
278,445,67321856,12.35401007047941
279,447,67321856,12.334379247154578
280,448,67321856,10.9308654808336
281,449,67321856,12.354878409105508
282,450,67321856,10.808605930569305
283,451,67321856,12.354443090933314
284,453,67321856,12.353717628812214
285,455,67321856,12.33669376193183
286,457,67321856,12.355386319080985
287,459,67321856,12.355749137488974
288,461,67321856,12.352919718877905
289,463,67321856,12.354007803436492
290,464,67321856,10.846500947914869
291,465,67321856,12.353715361876626
292,466,67321856,10.90474597679906
293,467,67321856,12.337417225946274
294,469,67321856,12.354443090933314
295,471,67321856,12.354660746184788
296,473,67321856,12.354297991692826
297,475,67321856,12.355023521980215
298,477,67321856,12.355313757956313
299,479,67321856,12.35437054088703
300,480,67321856,10.849631667416064
301,481,67321856,12.353862714420407
302,482,67321856,10.850247186056624
303,483,67321856,12.352194435647611
304,485,67321856,12.354588193582178
305,487,67321856,12.334885473049605
306,489,67321856,12.354007803436492
307,491,67321856,12.354878409105508
308,493,67321856,12.355241197683915
309,495,67321856,12.354443090933314
310,496,67321856,10.834712741573474
311,497,67321856,12.353064785744824
312,498,67321856,10.877063648617842
313,499,67321856,12.35378790422812
314,501,67321856,12.353862714420407
315,503,67321856,12.356762874347558
316,505,67321856,12.353645087286042
317,507,67321856,12.354078082153823
318,509,67321856,12.353064785744824
319,511,67321856,12.356184547706736
320,512,67321856,10.908704021088283
321,513,67321856,12.352266960138065
322,514,67321856,10.917025273708646
323,515,67321856,12.353862714420407
324,517,67321856,12.353570279729455
325,518,67289088,11.163653346362473
326,519,67289088,12.35416108986879
327,520,67289088,11.145664999735807
328,521,67289088,12.354449158338301
329,522,67289088,11.031931225657777
330,523,67289088,12.35387076673615
331,524,67289088,11.200043409286824
332,525,67289088,12.3540159265968
333,526,67289088,11.076445961635043
334,527,67289088,12.353723342244267
335,528,67289088,11.118730282947348
336,529,67289088,12.353943346240065
337,530,67289088,11.086780898250673
338,531,67289088,12.3546691881868
339,532,67289088,11.14873784271567
340,533,67289088,12.353145018598813
341,534,67289088,11.070204705320284
342,535,67289088,12.353943346240065
343,536,67289088,11.13179921197903
344,537,67289088,12.34733983609689
345,538,67289088,11.070904104829014
346,539,67289088,12.353653033341178
347,540,67289088,11.121613659093542
348,541,67289088,12.318046044744275
349,542,67289088,11.063099156569061
350,543,67289088,12.354451426647273
351,544,67289088,11.125202968678881
352,545,67289088,12.335824975205187
353,546,67289088,10.933327570605735
354,547,67289088,12.355540311116318
355,548,67289088,11.106339067312359
356,549,67289088,12.352346794128803
357,550,67289088,11.014941498392835
358,551,67289088,12.352999879203685
359,552,67289088,11.054549660226936
360,553,67289088,12.35328789352199
361,554,67289088,10.961827106722628
362,555,67289088,12.352854743219055
363,556,67289088,11.109450788791603
364,557,67289088,12.356847225869481
365,558,67289088,11.061993375536833
366,559,67289088,12.3546691881868
367,560,67289088,11.141647376734852
368,561,67289088,12.33126752634243
369,562,67289088,11.092219812565485
370,563,67289088,12.353362734086454
371,564,67289088,11.08035465519524
372,565,67289088,12.352491918177629
373,566,67289088,11.112914789097008
374,567,67289088,12.352129114449195
375,568,67289088,11.164125655770615
376,569,67289088,12.352782176505642
377,570,67305472,11.112506216223535
378,571,67305472,12.353903020384669
379,572,67305472,11.117912143258426
380,573,67305472,12.34063847069199
381,574,67305472,11.101362206184193
382,575,67305472,12.335716822826955
383,576,67305472,10.881784920333379
384,577,67305472,12.353975582599528
385,578,67305472,11.116795650102116
386,579,67305472,12.31570884591245
387,580,67305472,11.058636569465923
388,581,67305472,12.348028310461068
389,582,67305472,10.932634134788907
390,583,67305472,12.31794477983052
391,584,67305472,11.037512684728014
392,585,67305472,12.353903020384669
393,586,67305472,10.957812757438822
394,587,67305472,12.354556111006483
395,588,67305472,11.054393706767367
396,589,67305472,12.352016701945661
397,590,67305472,10.968668500496321
398,591,67305472,12.353830459022207
399,592,67305472,11.295847594649997
400,593,67305472,12.350566079698531
401,594,67305472,12.274093792348335
402,595,67305472,12.202315713328723
403,596,67305472,12.269585168608312
404,597,67305472,12.320756626993882
405,598,67305472,12.333040516149838
406,599,67305472,12.300149691433889
407,600,67305472,12.29655640371958
408,601,67305472,12.298279751240463
409,602,67305472,12.282410426900416
410,603,67305472,12.354771555350291
411,604,67305472,12.32638868921437
412,605,67305472,12.31340163636011
413,606,67305472,12.263432833373358
414,607,67305472,12.267650720807142
415,608,67305472,12.282049574205194
416,609,67305472,12.326174233614205
417,610,67305472,12.338900970129087
418,611,67305472,12.291954939493982
419,612,67305472,12.347810835910018
420,613,67305472,12.348753280960285
421,614,67305472,12.242159697903341
422,615,67305472,12.06782101918
423,616,67305472,12.273807289902907
424,617,67305472,12.342521315250044
425,618,67305472,12.293753344889375
426,619,67305472,12.35506411812023
427,620,67305472,12.312320429436383
428,621,67305472,12.270370303523862
429,622,67305472,12.344911907047619
430,623,67305472,12.307925476724186
431,624,67305472,12.342953635896333
432,625,67305472,12.29662604725211
433,626,67305472,12.301878543356667
434,627,67305472,12.320614538168284
435,628,67305472,12.263573606343597
436,629,67305472,12.322202510742146
437,630,67305472,12.28700026050704
438,631,67305472,12.352014435082594
439,632,67305472,12.31794477983052
440,633,67305472,12.274523571096266
441,634,67305472,12.225224454491443
442,635,67305472,12.310230634362467
443,636,67305472,12.28355588244151
444,637,67305472,12.289153977883878
445,638,67305472,12.331375191986467
446,639,67305472,12.216206738768493
447,640,67305472,12.242159697903341
448,641,67305472,12.314771437761667
449,642,67305472,12.271014591839618
450,643,67305472,12.352887238871467
451,644,67305472,12.23817071496563
452,645,67305472,12.24486798904128
453,646,67305472,12.323935311374708
454,647,67305472,12.293104421340482
455,648,67305472,12.312678558198288
456,649,67305472,12.299792291124293
457,650,67305472,12.115786540437515
458,651,67305472,12.16617535944239
459,652,67305472,12.284058067296199
460,653,67305472,12.345779178197475
461,654,67305472,12.297491040736285
462,655,67305472,12.296050950107851
463,656,67305472,12.334774105971103
464,657,67305472,12.34831828844574
465,658,67305472,12.289800240334621
466,659,67305472,12.167019897335331
467,660,67305472,12.30749335577394
468,661,67305472,12.347591103779395
469,662,67305472,12.338247271736693
470,663,67305472,12.351146287708763
471,664,67305472,12.328919828969836
472,665,67305472,12.331736689540515
473,666,67305472,12.30691724170466
474,667,67305472,12.354118441951101
475,668,67305472,12.29626660523296
476,669,67305472,12.240521050984263
477,670,67305472,12.26657753313848
478,671,67305472,12.172655349248133
479,672,67305472,12.27029872010953
480,673,67305472,12.298064025496036
481,674,67305472,12.292962969592276
482,675,67305472,12.327330124702877
483,676,67305472,12.341724657054474
484,677,67305472,12.296194719350755
485,678,67305472,10.927183306699474
486,679,67305472,12.352957521944905
487,680,67305472,11.042032435014802
488,681,67305472,12.311309222323253
489,682,67305472,11.053055773651822
490,683,67305472,12.352887238871467
491,684,67305472,11.139994177219423
492,685,67305472,12.354991543117618
493,686,67305472,11.040003884190753
494,687,67305472,12.355354426657199
495,688,67305472,11.101657014398487
496,689,67305472,12.311309222323253
497,690,67305472,11.128616506315183
498,691,67305472,12.353537954673728
499,692,67305472,11.01554620555924
500,693,67305472,12.353903020384669
501,694,67305472,11.081943071434358
502,695,67305472,12.319892867746361
503,696,67305472,11.172837040737035
504,697,67305472,12.354553843211248
505,698,67305472,10.956840558046917
506,699,67305472,12.35513669397548
507,700,67305472,11.064861448948282
508,701,67305472,12.330365370501935
509,702,67305472,11.042322288846291
510,703,67305472,12.352597046262495
511,704,67305472,11.014911635841605
512,705,67305472,12.313399383648294
513,706,67305472,11.144716368502127
514,707,67305472,12.352884971688866
515,708,67305472,11.115090125648107
516,709,67305472,12.351508945399024
517,710,67305472,11.165838034189239
518,711,67305472,12.35158147949272
519,712,67305472,11.062766314856564
520,713,67305472,12.354048145666798
521,714,67305472,11.006668877633455
522,715,67305472,12.350058442404414
523,716,67305472,11.09106108436711
524,717,67305472,12.354191006696603
525,718,67305472,11.044003741200795
526,719,67305472,12.353540222096026
527,720,67305472,11.110979925263686
528,721,67305472,12.353395108746925
529,722,67305472,11.080250047576998
530,723,67305472,12.354048145666798
531,724,67305472,11.119320934013103
532,725,67305472,12.354773823225454
533,726,67305472,11.004480568615614
534,727,67305472,12.289082175140424
535,728,67305472,11.051199179289405
536,729,67305472,12.351796820102171
537,730,67305472,11.042322288846291
538,731,67305472,12.353104892276102
539,732,67305472,11.090242352350701
540,733,67305472,12.302238313549603
541,734,67305472,11.115444405744483
542,735,67305472,12.285636629905847
543,736,67305472,11.044059919245441
544,737,67305472,12.314194642132492
545,738,67305472,11.006841675939135
546,739,67305472,12.35506411812023
547,740,67305472,11.032765140214552
548,741,67305472,12.353975582599528
549,742,67305472,11.03021936060739
550,743,67305472,12.351651747708386
551,744,67305472,11.01583467051093
552,745,67305472,12.24351369370238
553,746,67305472,11.03658601376493
554,747,67305472,12.353104892276102
555,748,67305472,11.074709378331502
556,749,67305472,12.353104892276102
557,750,67305472,11.011509281963992
558,751,67305472,12.35390075282919
559,752,67305472,11.030566443188842
560,753,67305472,12.356733578538558
