idx,og Index,data (B),bandwidth (GB/s)
0,3,8192,1.9537324111614596
1,4,8192,2.115702479338843
2,5,8192,2.4150943396226414
3,6,8192,2.4143825523135867
4,7,8192,2.349297390306854
5,9,8192,1.7534246575342465
6,11,8192,2.0818297331639135
7,12,8192,1.9541984732824427
8,13,8192,2.4861911987860394
9,14,8192,2.347950702206936
10,15,8192,2.349297390306854
11,17,8192,1.9248120300751879
12,19,8192,1.855072463768116
13,20,8192,1.9393939393939394
14,21,8192,2.392523364485981
15,22,8192,2.3486238532110093
16,23,8192,2.3703703703703702
17,25,8192,1.9692307692307693
18,27,8192,2.048
19,28,8192,2.015748031496063
20,29,8192,2.392523364485981
21,30,8192,2.3703703703703702
22,31,8192,2.265486725663717
23,33,8192,2.064516129032258
24,35,8192,2.115702479338843
25,36,8192,2.0813008130081303
26,37,8192,2.3063063063063063
27,38,8192,2.4150943396226414
28,39,8192,2.4380952380952383
29,41,8192,2.0317460317460316
30,43,8192,1.9393939393939394
31,44,8192,1.9844961240310077
32,45,8192,2.3703703703703702
33,46,8192,2.392523364485981
34,47,8192,2.327272727272727
35,49,8192,1.9692307692307693
36,52,8192,2.097823303457106
37,53,8192,2.4380952380952383
38,54,8192,2.4380952380952383
39,55,8192,2.3703703703703702
40,57,8192,2.0317460317460316
41,59,8192,2.0317460317460316
42,60,8192,2.116249031258073
43,61,8192,2.4143825523135867
44,62,8192,2.392523364485981
45,63,8192,2.392523364485981
46,65,8192,2.0813008130081303
47,67,8192,2.098360655737705
48,68,8192,2.115702479338843
49,69,8192,2.4150943396226414
50,70,8192,2.3932223196026876
51,71,8192,2.048
52,73,8192,2.0317460317460316
53,75,8192,2.064516129032258
54,76,8192,2.115702479338843
55,77,8192,2.4615384615384617
56,78,8192,2.4150943396226414
57,79,8192,2.392523364485981
58,81,8192,2.098360655737705
59,83,8192,1.9248120300751879
60,84,8192,1.9541984732824427
61,85,8192,2.4380952380952383
62,86,8192,2.392523364485981
63,87,8192,2.4380952380952383
64,92,8192,1.9692307692307693
65,93,8192,2.097823303457106
66,94,8192,2.4380952380952383
67,95,8192,2.4615384615384617
68,97,8192,2
69,99,8192,2
70,100,8192,2.098360655737705
71,101,8192,2.4150943396226414
72,102,8192,2.392523364485981
73,103,8192,2.4150943396226414
74,108,8192,1.9393939393939394
75,109,8192,2.1333333333333333
76,110,8192,2.437369830407617
77,111,8192,2.3696846977147814
78,115,8192,2.015748031496063
79,116,8192,2.098360655737705
80,117,8192,2.4380952380952383
81,118,8192,2.4150943396226414
82,119,8192,2.1880341880341883
83,124,8192,2.098360655737705
84,125,8192,2.115702479338843
85,126,8192,2.4150943396226414
86,127,8192,2.4380952380952383
87,132,8192,2.064516129032258
88,133,8192,2.098360655737705
89,134,8192,2.3703703703703702
90,135,8192,2.1333333333333333
91,137,8192,1.9541984732824427
92,140,8192,2.064516129032258
93,141,8192,2.115702479338843
94,142,8192,2.4158065467413743
95,143,8192,2.327272727272727
96,145,8192,2.064516129032258
97,148,8192,2.064516129032258
98,149,8192,2.1333333333333333
99,150,8192,2.392523364485981
100,151,8192,2.347950702206936
101,153,8192,2.015748031496063
102,156,8192,2.0813008130081303
103,157,8192,2.098360655737705
104,158,8192,2.3703703703703702
105,159,8192,2.3703703703703702
106,161,8192,1.8962962962962964
107,164,8192,2.048
108,165,8192,2.098360655737705
109,166,8192,2.3486238532110093
110,167,8192,2.4150943396226414
111,172,8192,2.0639959687578737
112,173,8192,2.03225006201935
113,174,8192,2.392523364485981
114,175,8192,2.4380952380952383
115,177,8192,2.0813008130081303
116,180,8192,2.0813008130081303
117,181,8192,2.1333333333333333
118,182,8192,2.392523364485981
119,183,8192,2.3703703703703702
120,185,8192,2.0639959687578737
121,187,8192,2
122,188,8192,2.115702479338843
123,189,8192,2.392523364485981
124,190,8192,2.392523364485981
125,191,8192,2.4150943396226414
126,193,8192,1.9692307692307693
127,195,8192,2.098360655737705
128,196,8192,2.06503655155029
129,197,8192,2.392523364485981
130,198,8192,2.392523364485981
131,199,8192,2.1333333333333333
132,201,8192,2.015748031496063
133,203,8192,1.9844961240310077
134,204,8192,2.015748031496063
135,205,8192,2.4615384615384617
136,206,8192,2.4615384615384617
137,207,8192,2.098360655737705
138,209,8192,1.984976980857766
139,211,8192,1.8028169014084507
140,212,8192,1.9687575102138908
141,213,8192,2.4380952380952383
142,214,8192,2.392523364485981
143,215,8192,2.3063063063063063
144,217,8192,1.9393939393939394
145,219,8192,2.015748031496063
146,220,8192,1.9844961240310077
147,221,8192,2.3932223196026876
148,222,8192,2.392523364485981
149,223,8192,2.2857142857142856
150,227,8192,1.9844961240310077
151,228,8192,2.098360655737705
152,229,8192,2.245614035087719
153,230,8192,2.3063063063063063
154,231,8192,2.3063063063063063
155,233,8192,2.064516129032258
156,236,8192,2.098360655737705
157,237,8192,2.4380952380952383
158,238,8192,2.392523364485981
159,239,8192,2.1333333333333333
160,240,8192,1.9248120300751879
161,243,8192,2.06503655155029
162,244,8192,2.0818297331639135
163,245,8192,2.437369830407617
164,246,8192,2.392523364485981
165,247,8192,2.3063063063063063
166,252,8192,2.098360655737705
167,253,8192,2.098360655737705
168,254,8192,2.327272727272727
169,255,8192,2.3063063063063063
170,257,8192,2.0317460317460316
171,258,8192,1.9692307692307693
172,260,8192,2.0818297331639135
173,261,8192,1.9537324111614596
174,262,8192,2.4143825523135867
175,263,8192,2.4150943396226414
176,265,8192,1.9104477611940298
177,268,8192,1.9844961240310077
178,269,8192,2.1333333333333333
179,270,8192,2.392523364485981
180,271,8192,2.4615384615384617
181,272,8192,1.8028169014084507
182,275,8192,2.048
183,276,8192,1.954664757814364
184,277,8192,2.4380952380952383
185,278,8192,2.392523364485981
186,279,8192,2.3703703703703702
187,283,8192,2.064516129032258
188,284,8192,2.098360655737705
189,285,8192,2.3486238532110093
190,286,8192,2.4380952380952383
191,287,8192,2.392523364485981
192,291,8192,1.9541984732824427
193,292,8192,2.0317460317460316
194,293,8192,2.4150943396226414
195,294,8192,2.392523364485981
196,295,8192,2.3063063063063063
197,297,8192,2.0813008130081303
198,299,8192,2.064516129032258
199,300,8192,2.115702479338843
200,301,8192,2.4615384615384617
201,302,8192,2.392523364485981
202,303,8192,2.1689171299973524
203,305,8192,2.015748031496063
204,306,8192,2.0813008130081303
205,308,8192,1.855072463768116
206,309,8192,2.1512605042016806
207,310,8192,2.4150943396226414
208,311,8192,2.097823303457106
209,312,8192,1.3689839572192513
210,316,8192,2.015748031496063
211,317,8192,2.098360655737705
212,318,8192,2.3056571911061075
213,319,8192,2.3696846977147814
214,324,8192,2.064516129032258
215,325,8192,2.098360655737705
216,326,8192,2.4380952380952383
217,327,8192,2.2857142857142856
218,330,8192,1.7534246575342465
219,332,8192,2.06503655155029
220,333,8192,2.0639959687578737
221,334,8192,2.2857142857142856
222,335,8192,2.4150943396226414
223,337,8192,2.0317460317460316
224,338,8192,1.9692307692307693
225,340,8192,2.048
226,341,8192,2.1333333333333333
227,342,8192,2.4143825523135867
228,343,8192,2.3703703703703702
229,345,8192,1.2307692307692308
230,347,8192,1.841726618705036
231,348,8192,1.9541984732824427
232,349,8192,2.4150943396226414
233,350,8192,2.3703703703703702
234,351,8192,2.3063063063063063
235,352,8192,1.8962962962962964
236,355,8192,2.0813008130081303
237,356,8192,2.116249031258073
238,357,8192,2.4143825523135867
239,358,8192,2.392523364485981
240,359,8192,2.4380952380952383
241,361,8192,2.4854368932038833
242,363,8192,2.0813008130081303
243,364,8192,2.115702479338843
244,365,8192,2.4150943396226414
245,366,8192,2.4150943396226414
246,367,8192,2.3063063063063063
247,369,8192,2.015748031496063
248,371,8192,1.9692307692307693
249,372,8192,2.098360655737705
250,373,8192,2.4615384615384617
251,374,8192,2.4158065467413743
252,375,8192,2.098360655737705
253,380,8192,2.098360655737705
254,381,8192,2.015748031496063
255,382,8192,2.4150943396226414
256,383,8192,2.4380952380952383
257,384,8192,1.9248120300751879
258,388,8192,2.064516129032258
259,389,8192,2.098360655737705
260,390,8192,2.4150943396226414
261,391,8192,2.4615384615384617
262,395,8192,2.0317460317460316
263,396,8192,1.7902097902097902
264,397,8192,2.4615384615384617
265,398,8192,2.4380952380952383
266,399,8192,2.265486725663717
267,401,8192,1.9844961240310077
268,402,8192,2.064516129032258
269,403,8192,2.098360655737705
270,404,8192,2.4150943396226414
271,405,8192,2.2857142857142856
272,406,8192,2.392523364485981
273,407,8192,2.0813008130081303
274,409,8192,2.0813008130081303
275,411,8192,2.098360655737705
276,412,8192,2.098360655737705
277,413,8192,2.169491525423729
278,414,8192,1.0078740157480315
279,415,8192,2.150695720661591
280,416,8192,1.841726618705036
281,417,8192,2.1512605042016806
282,419,8192,2.1333333333333333
283,420,8192,2.392523364485981
284,421,8192,2.392523364485981
285,422,8192,1.3403141361256545
286,423,8192,1.9692307692307693
287,424,8192,2.015748031496063
288,425,8192,2.015748031496063
289,427,8192,1.9844961240310077
290,428,8192,2.015748031496063
291,429,8192,2.3056571911061075
292,430,8192,2.3703703703703702
293,431,8192,2.4380952380952383
294,432,8192,1.9104477611940298
295,433,8192,2.115156209656597
296,434,8192,2.1333333333333333
297,435,8192,2.098360655737705
298,436,8192,1.8962962962962964
299,437,8192,2.4380952380952383
300,438,8192,2.392523364485981
301,439,8192,1.9541984732824427
302,441,8192,2.098360655737705
303,443,8192,2.0317460317460316
304,444,8192,2
305,445,8192,2.3696846977147814
306,446,8192,2.4150943396226414
307,447,8192,2.392523364485981
308,449,8192,2
309,451,8192,2.015748031496063
310,452,8192,2.098360655737705
311,453,8192,2.392523364485981
312,454,8192,2.4150943396226414
313,455,8192,2.3063063063063063
314,457,8192,2.064516129032258
315,459,8192,1.753049432912476
316,460,8192,1.6623376623376624
317,461,8192,2.4846830451925994
318,462,8192,2.4380952380952383
319,463,8192,2.3063063063063063
320,465,8192,2.048
321,467,8192,1.9541984732824427
322,468,8192,2.064516129032258
323,469,8192,2.098360655737705
324,470,8192,2.327272727272727
325,471,8192,2.3703703703703702
326,473,8192,2
327,475,8192,2.0317460317460316
328,476,8192,2.115702479338843
329,477,8192,2.3063063063063063
330,478,8192,2.4143825523135867
331,479,8192,2.015748031496063
332,481,8192,2.0317460317460316
333,483,8192,1.8546524790581842
334,484,8192,1.5802469135802468
335,485,8192,2.4150943396226414
336,486,8192,2.3069557871022246
337,487,8192,2.098360655737705
338,489,8192,2.098360655737705
339,492,8192,1.8819205145876408
340,493,8192,2.150695720661591
341,494,8192,2.4143825523135867
342,495,8192,2.4380952380952383
343,497,8192,1.9692307692307693
344,499,8192,2.048
345,500,8192,1.9687575102138908
346,501,8192,2.3063063063063063
347,502,8192,2.4150943396226414
348,503,8192,2.4380952380952383
349,505,8192,1.5058823529411764
350,507,8192,1.7902097902097902
351,508,8192,2.0813008130081303
352,509,8192,2.3703703703703702
353,510,8192,2.4143825523135867
354,511,8192,2.327272727272727
355,513,8192,2.06503655155029
356,515,8192,2.048
357,516,8192,1.841726618705036
358,517,8192,2.4158065467413743
359,518,8192,2.4380952380952383
360,519,8192,2.3703703703703702
361,521,8192,2.0813008130081303
362,523,8192,1.8421407690577918
363,524,8192,2.098360655737705
364,525,8192,2.4615384615384617
365,526,8192,2.4158065467413743
366,527,8192,2.3056571911061075
367,529,8192,1.9541984732824427
368,531,8192,1.9541984732824427
369,532,8192,2
370,533,8192,2.4380952380952383
371,534,8192,2.4150943396226414
372,535,8192,2.3703703703703702
373,537,8192,1.5705521472392638
374,538,8192,1.8962962962962964
375,540,8192,2.0813008130081303
376,541,8192,2.098360655737705
377,542,8192,2.392523364485981
378,543,8192,2.3063063063063063
379,548,8192,2.0317460317460316
380,549,8192,2.048
381,550,8192,2.327272727272727
382,551,8192,2.4150943396226414
383,552,8192,1.7414965986394557
384,555,8192,2.0317460317460316
385,556,8192,2.115702479338843
386,557,8192,2.4380952380952383
387,558,8192,2.3486238532110093
388,559,8192,2.392523364485981
389,561,8192,2
390,563,8192,2.015748031496063
391,564,8192,2.098360655737705
392,565,8192,2.4380952380952383
393,566,8192,2.098360655737705
394,567,8192,2.3703703703703702
395,571,8192,1.8962962962962964
396,572,8192,2.098360655737705
397,573,8192,2.2857142857142856
398,574,8192,2.4143825523135867
399,575,8192,2.4380952380952383
400,577,8192,2.015748031496063
401,579,8192,2
402,580,8192,2.098360655737705
403,581,8192,2.4150943396226414
404,582,8192,2.392523364485981
405,583,8192,2.226086956521739
406,585,8192,2
407,587,8192,2
408,588,8192,2.115702479338843
409,589,8192,2.4854368932038833
410,590,8192,2.392523364485981
411,591,8192,2.3703703703703702
412,595,8192,2
413,596,8192,2.098360655737705
414,597,8192,2.4380952380952383
415,598,8192,2.4143825523135867
416,599,8192,2.327272727272727
417,601,8192,1.9995118379301928
418,603,8192,1.9393939393939394
419,604,8192,2.115702479338843
420,605,8192,2.064516129032258
421,606,8192,2.4150943396226414
422,607,8192,2.4380952380952383
423,612,8192,2.064516129032258
424,613,8192,2.098360655737705
425,614,8192,2.4380952380952383
426,615,8192,2.3486238532110093
427,620,8192,1.841726618705036
428,621,8192,2.1333333333333333
429,622,8192,2.3703703703703702
430,623,8192,2.4150943396226414
431,628,8192,2.048
432,629,8192,2.1512605042016806
433,630,8192,2.3918248175182484
434,631,8192,2.349297390306854
435,636,8192,2.0813008130081303
436,637,8192,2.0813008130081303
437,638,8192,2.4150943396226414
438,639,8192,2.4380952380952383
439,643,8192,1.4143646408839778
440,644,8192,2.115702479338843
441,645,8192,2.392523364485981
442,646,8192,2.392523364485981
443,647,8192,2.4150943396226414
444,648,8192,1.8285714285714285
445,652,8192,2.0813008130081303
446,653,8192,2.1333333333333333
447,654,8192,2.4150943396226414
448,655,8192,2.4615384615384617
449,659,8192,1.9844961240310077
450,660,8192,2.03225006201935
451,661,8192,2.4607990387503755
452,662,8192,2.392523364485981
453,663,8192,2.3703703703703702
454,664,8192,2.0813008130081303
455,668,8192,2.0317460317460316
456,669,8192,2.115702479338843
457,670,8192,2.4143825523135867
458,671,8192,2.3486238532110093
459,675,8192,1.9844961240310077
460,676,8192,2.115702479338843
461,677,8192,2.392523364485981
462,678,8192,2.4143825523135867
463,679,8192,2.4380952380952383
464,683,8192,2.064516129032258
465,684,8192,1.9692307692307693
466,685,8192,2.4615384615384617
467,686,8192,2.3063063063063063
468,687,8192,2.3486238532110093
469,689,8192,2.048
470,691,8192,2
471,692,8192,2.015748031496063
472,693,8192,2.169491525423729
473,694,8192,2.392523364485981
474,695,8192,2.4380952380952383
475,697,8192,2
476,699,8192,1.9537324111614596
477,700,8192,2.1327779224160377
478,701,8192,2.347950702206936
479,702,8192,2.4158065467413743
480,703,8192,2.226086956521739
481,705,8192,2.064516129032258
482,707,8192,1.9248120300751879
483,708,8192,1.7655172413793103
484,709,8192,2.3703703703703702
485,710,8192,2.4380952380952383
486,711,8192,2.2857142857142856
487,712,8192,1.9844961240310077
488,714,8192,2.1333333333333333
489,715,8192,2.015748031496063
490,716,8192,1.8962962962962964
491,717,8192,2.1333333333333333
492,718,8192,2.2857142857142856
493,719,8192,2.4854368932038833
494,721,8192,2.015748031496063
495,723,8192,2.015748031496063
496,724,8192,2.1333333333333333
497,725,8192,2.2857142857142856
498,726,8192,2.4380952380952383
499,727,8192,2.327272727272727
500,729,8192,2.015748031496063
501,730,8192,1.841726618705036
502,732,8192,2.0813008130081303
503,733,8192,2.0639959687578737
504,734,8192,2.4150943396226414
505,735,8192,2.3063063063063063
506,737,8192,2.3063063063063063
507,740,8192,1.6842105263157894
508,741,8192,2.115702479338843
509,742,8192,2.4150943396226414
510,743,8192,2.3063063063063063
511,746,8192,1.6
512,748,8192,2.115702479338843
513,749,8192,2.098360655737705
514,750,8192,2.4150943396226414
515,751,8192,2.2857142857142856
516,756,8192,2.098360655737705
517,757,8192,2.0317460317460316
518,758,8192,2.4615384615384617
519,759,8192,2.266113416320885
520,761,8192,2.098360655737705
521,763,8192,2.015748031496063
522,764,8192,2.1333333333333333
523,765,8192,2.2857142857142856
524,766,8192,2.4150943396226414
525,767,8192,2.3063063063063063
526,768,8192,1.9248120300751879
527,771,8192,1.8962962962962964
528,772,8192,1.9692307692307693
529,773,8192,2.327272727272727
530,774,8192,2.4150943396226414
531,775,8192,2.265486725663717
532,776,8192,2.064516129032258
533,780,8192,2.1333333333333333
534,781,8192,2.245614035087719
535,782,8192,2.4150943396226414
536,783,8192,2.169491525423729
537,784,8192,2.098360655737705
538,787,8192,1.855072463768116
539,788,8192,2.015748031496063
540,789,8192,2.3063063063063063
541,790,8192,2.3703703703703702
542,791,8192,2.245614035087719
543,792,8192,2.06503655155029
544,795,8192,2.0639959687578737
545,796,8192,2.1333333333333333
546,797,8192,2.4143825523135867
547,798,8192,2.4143825523135867
548,799,8192,2.206896551724138
549,801,8192,2
550,802,8192,1.5515151515151515
551,803,8192,2.098360655737705
552,804,8192,2.4150943396226414
553,805,8192,2.4143825523135867
554,806,8192,1.8962962962962964
555,807,8192,2.327272727272727
556,808,8192,1.8028169014084507
557,810,8192,1.8823529411764706
558,812,8192,2.015748031496063
559,813,8192,2.098360655737705
560,814,8192,2.1333333333333333
561,815,8192,1.8686131386861313
562,816,8192,1.7534246575342465
563,818,8192,1.8028169014084507
564,820,8192,2
565,821,8192,2.098360655737705
566,822,8192,2.392523364485981
567,823,8192,2.064516129032258
568,825,8192,1.9393939393939394
569,826,8192,2.115702479338843
570,828,8192,2.1333333333333333
571,829,8192,2.115702479338843
572,830,8192,2.4380952380952383
573,831,8192,2.0813008130081303
574,832,8192,2
575,834,8192,1.8962962962962964
576,836,8192,2.064516129032258
577,837,8192,2.1333333333333333
578,838,8192,2.4150943396226414
579,839,8192,2.064516129032258
580,840,8192,1.9248120300751879
581,842,8192,1.9248120300751879
582,844,8192,2.1333333333333333
583,845,8192,2.048
584,846,8192,2.4150943396226414
585,847,8192,1.7063111851697563
586,848,8192,2.0317460317460316
587,850,8192,1.7777777777777777
588,852,8192,1.9541984732824427
589,853,8192,2.098360655737705
590,854,8192,2.327272727272727
591,855,8192,2.327272727272727
592,857,8192,1.9541984732824427
593,858,8192,1.7902097902097902
594,860,8192,1.8819205145876408
595,861,8192,2.0813008130081303
596,862,8192,1.8028169014084507
597,863,8192,2.1880341880341883
598,864,8192,1.8156028368794326
599,866,8192,2.047488127968008
600,868,8192,2.064516129032258
601,869,8192,2.115702479338843
602,870,8192,1.4970760233918128
603,871,8192,1.7655172413793103
604,873,8192,1.8028169014084507
605,874,8192,1.6842105263157894
606,876,8192,2.015252152521525
607,877,8192,2.0818297331639135
608,878,8192,2.3696846977147814
609,879,8192,2.349297390306854
610,880,8192,1.122960932145305
611,881,8192,2.048
612,882,8192,0.8024292291115682
613,883,8192,1.9692307692307693
614,884,8192,2.064516129032258
615,885,8192,2.4150943396226414
616,886,8192,2.1880341880341883
617,887,8192,2.1512605042016806
618,888,8192,0.9808429118773946
619,889,8192,1.1327433628318584
620,890,8192,1.9541984732824427
621,891,8192,1.1228070175438596
622,892,8192,1.9393939393939394
623,893,8192,2.1333333333333333
624,894,8192,2.4380952380952383
625,895,8192,2.3063063063063063
626,896,8192,0.9481481481481482
627,897,8192,1.1851851851851851
628,898,8192,1.0363061353573688
629,899,8192,1.0447646983803087
630,900,8192,2.115702479338843
631,901,8192,2.2857142857142856
632,902,8192,2.3486238532110093
633,903,8192,2.392523364485981
634,904,8192,0.9660377358490566
635,905,8192,1.1426977263216627
636,906,8192,1.1531531531531531
637,907,8192,1.1377777777777778
638,908,8192,2.0312422514257378
639,909,8192,2.115702479338843
640,910,8192,2.3063063063063063
641,911,8192,2
642,912,8192,0.8858131487889274
643,913,8192,2.115702479338843
644,914,8192,0.8311688311688312
645,915,8192,1.9393939393939394
646,916,8192,1.9692307692307693
647,917,8192,2.4150943396226414
648,918,8192,2.392523364485981
649,919,8192,2.327272727272727
650,920,8192,0.9770992366412213
651,921,8192,1.0893617021276596
