idx,og Index,data (B),bandwidth (GB/s)
0,3,16883712,11.82679791899724
1,5,16883712,12.11523011723644
2,7,16883712,11.636195221800664
3,9,16883712,11.632603538758438
4,11,16883712,12.183834422878057
5,13,16883712,11.69894857336081
6,15,16883712,11.974569563478216
7,17,16883712,12.08079761528257
8,19,16883712,12.214614524816334
9,21,16883712,12.027311952505412
10,23,16883712,12.267785831788087
11,25,16883712,11.515937677552337
12,26,16891904,12.026833404769466
13,27,16891904,12.118325807761455
14,29,16891904,12.105524771604744
15,30,16891904,11.555858994733065
16,33,16891904,11.927819756993653
17,35,16891904,12.197368582571354
18,37,16891904,12.199623724835245
19,39,16891904,12.157723098581615
20,41,16891904,12.162756638359703
21,43,16891904,11.515736399123567
22,45,16891904,12.084713666063095
23,47,16891904,12.157154351828261
24,49,16891904,11.972228128517198
25,51,16891904,12.062319960353788
26,53,16891904,11.822979068896611
27,55,16891904,11.793107011255598
28,57,16891904,12.079735863332015
29,59,16891904,12.156874372973183
30,61,16891904,12.120273518501245
31,63,16891904,12.199332976085069
32,65,16891904,11.66192647946172
33,67,16891904,11.940509178099234
34,69,16891904,12.029848322776651
35,71,16891904,12.11135743764322
36,73,16891904,12.144550594433548
37,75,16891904,12.119995235778728
38,77,16891904,11.717900283514863
39,79,16891904,11.735892289297086
40,81,16891904,12.03369625074
41,83,16891904,12.173143264412811
42,85,16891904,11.91272882167548
43,87,16891904,12.004107514548632
44,89,16891904,11.648777567907338
45,90,16900096,12.219952103844419
46,91,16900096,12.152117764138081
47,92,16900096,11.578215539932286
48,93,16900096,11.536437186162907
49,94,16900096,12.229298773097144
50,95,16900096,12.25316786092081
51,96,16900096,12.317531026882676
52,97,16900096,12.226193421621865
53,98,16900096,12.17960856834199
54,99,16900096,12.252874696579944
55,100,16900096,12.027185554934036
56,101,16900096,12.302879148558242
57,102,16900096,12.195948081638779
58,103,16900096,12.284260535329041
59,104,16900096,11.771451258458505
60,105,16900096,12.088360405622987
61,106,16900096,12.217407900063616
62,107,16900096,12.157441570876403
63,108,16900096,11.977762595006507
64,109,16900096,12.0997240705818
65,110,16900096,11.97558129070523
66,111,16900096,11.9045108682636
67,112,16900096,12.01377097333029
68,113,16900096,12.08809236680643
69,114,16900096,12.118065136022716
70,115,16900096,12.079504128450859
71,116,16900096,12.035142416229831
72,117,16900096,11.7032947703882
73,118,16900096,12.01048388472275
74,119,16900096,12.111673293410426
75,120,16900096,11.91661519282243
76,121,16900096,12.156602040427305
77,122,16900096,12.07590484812671
78,123,16900096,11.96634714105057
79,124,16900096,12.08061800945428
80,125,16900096,12.093905421903155
81,126,16900096,12.103337565896569
82,127,16900096,12.186924729942167
83,128,16900096,12.035690962244466
84,129,16900096,11.606491356990295
85,130,16900096,12.137028427057233
86,131,16900096,12.119733682915145
87,132,16900096,12.077018065401326
88,133,16900096,12.016777886410097
89,134,16900096,12.013215884082365
90,135,16900096,12.136470605132477
91,136,16900096,11.911231522718959
92,137,16900096,12.110831393103172
93,138,16900096,12.074533025446398
94,139,16900096,12.158289964215982
95,140,16900096,12.049163158288744
96,141,16900096,11.695252515676048
97,142,16900096,12.15268576425218
98,143,16900096,11.911777227066787
99,144,16900096,12.06183044731294
100,145,16900096,12.08504102097279
101,146,16900096,11.982119093079266
102,147,16900096,12.024438643337966
103,148,16900096,12.012942628217887
104,149,16900096,11.89861033469404
105,150,16900096,12.160520841503262
106,151,16900096,12.072868275754175
107,152,16900096,11.959022535906938
108,153,16900096,11.812829918582803
109,154,16785408,12.192008018855933
110,155,16785408,12.291716309543075
111,156,16785408,11.797679459533924
112,157,16785408,12.158651882028087
113,158,16785408,11.955248500733608
114,159,16785408,12.111208277414606
115,160,16785408,11.931046835950495
116,161,16785408,12.16909740623643
117,162,16785408,11.90099970221636
118,163,16785408,11.779936347080351
119,164,16785408,12.008902898736324
120,165,16785408,12.149367357973114
121,166,16785408,12.058586711954414
122,167,16785408,12.254385663921877
123,168,16785408,11.857417752422288
124,169,16785408,12.173042280078324
125,170,16785408,12.1056268701603
126,171,16785408,12.15189169622819
127,172,16785408,12.021278972834073
128,173,16785408,11.802192053594782
129,174,16785408,11.921014280722586
130,175,16785408,12.126055902034542
131,176,16785408,12.148514421531985
132,177,16785408,12.025688567670347
133,178,16785408,12.05194596321679
134,179,16785408,12.057477968789957
135,180,16785408,12.077197208605575
136,181,16785408,12.10171683752371
137,182,16785408,11.977095298542448
138,183,16785408,12.1829466119022
139,184,16785408,12.00697009668291
140,185,16785408,11.69430431205233
141,186,16785408,11.972166192594198
142,187,16785408,12.166830481790427
143,188,16785408,12.148241858849328
144,189,16785408,12.037831650874793
145,190,16785408,11.942727528865337
146,191,16785408,12.109818995612867
147,192,16785408,12.081369663651616
148,193,16785408,12.137279160758458
149,194,16785408,11.918034882036688
150,195,16785408,12.070796358354068
151,196,16785408,12.072741082140114
152,197,16785408,11.679990647884502
153,198,16785408,12.040594863378256
154,199,16785408,12.184927643542363
155,200,16785408,12.155843027234654
156,201,16785408,12.021563087500672
157,202,16785408,12.01578012623242
158,203,16785408,12.14373316124402
159,204,16785408,12.07969164251027
160,205,16785408,12.145139023550216
161,206,16785408,12.109530694046455
162,207,16785408,12.052768084098057
163,208,16785408,11.937563473437166
164,209,16785408,11.841891834690221
165,210,16785408,12.079422159245876
166,211,16785408,12.128859770377398
167,212,16785408,12.051115302354667
168,213,16785408,12.130262190852045
169,214,16785408,11.93186102652029
170,215,16785408,12.126896926410273
171,216,16785408,12.158942527303534
172,217,16785408,12.062754984344311
173,218,16793600,11.993886500307104
174,219,16793600,12.068355922215675
175,220,16793600,12.079753881920004
176,221,16793600,12.04869239803675
177,222,16793600,11.750580056144397
178,223,16793600,12.10120171816081
179,224,16793600,11.753211669228163
180,225,16793600,12.103992740602678
181,226,16793600,11.82204976727029
182,227,16793600,11.696369122075838
183,228,16793600,11.86776532443854
184,229,16793600,12.047577370618535
185,230,16793600,12.03348877736154
186,231,16793600,12.129441573036955
187,232,16793600,11.75111450717126
188,233,16793600,12.104830298404076
189,234,16793600,11.946380147793203
190,235,16793600,12.102876177146971
191,236,16793600,11.953454868476122
192,237,16793600,12.083091399532178
193,238,16793600,12.069466125058574
194,239,16793600,11.973909745058167
195,240,16793600,11.9782910592916
196,241,16793600,11.95754876516179
197,242,16793600,11.970913849994332
198,243,16793600,12.071973506296711
199,244,16793600,12.018607314105775
200,245,16793600,12.156986234929184
201,246,16793600,11.800783083595439
202,247,16793600,12.19937599657125
203,248,16793600,12.082256847242936
204,249,16793600,12.17164795166594
205,250,16793600,12.056719767561239
206,251,16793600,11.895742251362156
207,252,16793600,11.929009550396186
208,253,16793600,11.91952672801411
209,254,16793600,12.071973506296711
210,255,16793600,12.326021266085899
211,256,16793600,11.66620817668259
212,257,16793600,12.064757840591112
213,258,16793600,11.785147861724376
214,259,16793600,12.080301316966919
215,260,16793600,11.891968445948816
216,261,16793600,11.113537609175868
217,262,16793600,12.087535592644523
218,263,16793600,12.216414788950116
219,264,16793600,12.102309251129258
220,265,16793600,12.130291418520914
221,266,16793600,11.971178384358542
222,267,16793600,12.219828260535797
223,268,16793600,11.875553342969397
224,269,16793600,12.155287972970234
225,270,16793600,12.034049273848142
226,271,16793600,12.187468249706082
227,272,16793600,11.98293208511124
228,273,16793600,12.14516984043988
229,274,16793600,12.119077790831598
230,275,16793600,11.838050150428728
231,276,16793600,12.00431176213255
232,277,16793600,12.174745175368644
233,278,16793600,11.993620961412244
234,279,16793600,12.171921432195404
235,280,16793600,12.014755163305546
236,281,16793600,12.110975932521924
237,282,16801792,12.06314670955328
238,283,16801792,11.594567420394187
239,284,16801792,11.698424501686343
240,285,16801792,12.328848703737812
241,286,16801792,11.891841085326185
242,287,16801792,12.316413022044761
243,288,16801792,12.055676936577399
244,289,16801792,12.118832676966576
245,290,16801792,11.819562666546608
246,291,16801792,12.051241001982504
247,292,16801792,11.787720189369171
248,293,16801792,12.10682557582352
249,294,16801792,12.126109637208174
250,295,16801792,11.569792840163833
251,296,16801792,11.676043799952328
252,297,16801792,11.960375515736182
253,298,16801792,11.944331135479056
254,299,16801792,12.323929271124666
255,300,16801792,11.776087559890438
256,301,16801792,12.024745431799769
257,302,16801792,12.079520781749215
258,303,16801792,10.955627918743993
259,304,16801792,11.992893540873917
260,305,16801792,12.091204011548747
261,306,16801792,12.110447029653015
262,307,16801792,12.054284410594011
263,308,16801792,12.090090349395128
264,309,16801792,12.023377249759736
265,310,16801792,12.177576514859407
266,311,16801792,12.03109132557745
267,312,16801792,12.039643463923259
268,313,16801792,12.202490349803728
269,314,16801792,12.141251282644198
270,315,16801792,11.482751739314661
271,316,16801792,12.019240178895894
272,317,16801792,12.094824830906468
273,318,16801792,11.960375515736182
274,319,16801792,12.184084786384288
275,320,16801792,11.969645935741255
276,321,16801792,12.140409088150202
277,322,16801792,12.056221925632526
278,323,16801792,12.17476165735904
279,324,16801792,11.972383796536787
280,325,16801792,11.778200875419554
281,326,16801792,12.057883148609042
282,327,16801792,11.857733664185277
283,328,16801792,12.050419890826234
284,329,16801792,12.16769936242262
285,330,16801792,12.126118388812827
286,331,16801792,12.188610233133089
287,332,16801792,11.862287878317204
288,333,16801792,12.058713931783666
289,334,16801792,12.192563909796261
290,335,16801792,12.160662859144603
291,336,16801792,11.993989367891375
292,337,16801792,11.695028959510978
293,338,16801792,12.007704121705112
294,339,16801792,12.04047173549905
295,340,16801792,12.047654865765436
296,341,16801792,12.097899006277997
297,342,16801792,12.088985590458778
298,343,16801792,12.01594803942813
299,344,16801792,12.04018700429101
300,345,16801792,12.173350306583558
301,346,16809984,12.05517993144103
302,347,16809984,11.942539351450582
303,348,16809984,12.088200078958097
304,349,16809984,12.104634257515718
305,350,16809984,11.963754273790173
306,351,16809984,11.997088151918536
307,352,16809984,11.834116643247155
308,353,16809984,12.109648250762888
309,354,16809984,11.904919193779126
310,355,16809984,12.169401707916707
311,356,16809984,11.804067737577277
312,357,16809984,12.161803508188063
313,358,16809984,12.128100568816395
314,359,16809984,11.716658720798936
315,360,16809984,11.960213220708479
316,361,16809984,12.07846338231786
317,362,16809984,12.005313481101433
318,363,16809984,12.164901511966265
319,364,16809984,12.025100364258591
320,365,16809984,12.209574901564295
321,366,16809984,12.040259342132783
322,367,16809984,12.216105362373924
323,368,16809984,12.065433326036167
324,369,16809984,12.149708254943187
325,370,16809984,12.075695502535467
326,371,16809984,11.57824032620225
327,372,16809984,12.072356646912318
328,373,16809984,12.100451841811456
329,374,16809984,12.139591716472019
330,375,16809984,12.18437050379267
331,376,16809984,11.839184144915697
332,377,16809984,12.222918320870454
333,378,16809984,12.093200463872877
334,379,16809984,12.165464954960235
335,380,16809984,12.033924101016334
336,381,16809984,12.128949398205837
337,382,16809984,12.013824845270937
338,383,16809984,11.582069478703028
339,384,16809984,12.03143492712422
340,385,16809984,12.099885695200639
341,386,16809984,12.113007768617551
342,387,16809984,12.125030024084184
343,388,16809984,11.985600154009049
344,389,16809984,12.15841687280302
345,390,16809984,12.059339755900366
346,391,16809984,12.189742477848512
347,392,16809984,12.017956173381881
348,393,16809984,11.871030068832267
349,394,16809984,12.182675074483976
350,395,16809984,12.014374379983362
351,396,16809984,11.990250868241926
352,397,16809984,12.151675609951806
353,398,16809984,12.139889794827724
354,399,16809984,12.130069684827152
355,400,16809984,12.027302933777507
356,401,16809984,12.016023285802923
357,402,16809984,12.120274188117506
358,403,16809984,12.13315154039203
359,404,16809984,11.907617765814267
360,405,16809984,11.85066874212187
361,406,16809984,12.140152817298109
362,407,16809984,12.172512398812726
363,408,16809984,12.030057280589007
364,409,16809984,12.008340840041747
365,410,16818176,11.997463281426668
366,411,16818176,12.182114108519496
367,412,16818176,11.935614498873374
368,413,16818176,11.630280180461776
369,414,16818176,11.724199084827715
370,415,16818176,12.110254148499916
371,416,16818176,11.950269549727253
372,417,16818176,12.082135824544338
373,418,16818176,11.859922091183215
374,419,16818176,12.234568368246615
375,420,16818176,11.794448574273812
376,421,16818176,12.156182689221891
377,422,16818176,12.034274927854497
378,423,16818176,12.278604146559063
379,424,16818176,11.895093979312174
380,425,16818176,11.760403001815298
381,426,16818176,11.980771696666961
382,427,16818176,11.981864244006282
383,428,16818176,12.073800314153866
384,429,16818176,11.926938514998936
385,430,16818176,12.071027253909513
386,431,16818176,12.199646157383798
387,432,16818176,12.049717280967979
388,433,16818176,12.106061173191597
389,434,16818176,11.883789092861887
390,435,16818176,12.166040334580693
391,436,16818176,12.036471170884898
392,437,16818176,11.65373968320841
393,438,16818176,12.026830893857785
394,439,16818176,12.168012021736944
395,440,16818176,12.03591988160294
396,441,16818176,12.047507571698324
397,442,16818176,12.031511384675257
398,443,16818176,12.031786821117576
399,444,16818176,11.928562714730322
400,445,16818176,12.124502297200753
401,446,16818176,12.003757112390762
402,447,16818176,11.433927912211631
403,448,16818176,11.975311947274431
404,449,16818176,11.78201331750085
405,450,16818176,12.010349159148673
406,451,16818176,12.219217057028954
407,452,16818176,11.99499892660932
408,453,16818176,12.138784012310436
409,454,16818176,11.998832805027785
410,455,16818176,12.224332840285072
411,456,16818176,12.02655568427225
412,457,16818176,12.113045263192012
413,458,16818176,12.094369323857185
414,459,16818176,12.232592849048562
415,460,16818176,12.133739566702042
416,461,16818176,11.414318175031287
417,462,16818176,12.022154043227262
418,463,16818176,12.181822922853609
419,464,16818176,12.109129344135292
420,465,16818176,12.146911229816752
421,466,16818176,12.10077397231198
422,467,16818176,12.130930158079845
423,468,16818176,12.07407769025555
424,469,16818176,12.168012021736944
425,470,16818176,11.93641925364448
426,471,16818176,12.203045287495602
427,472,16818176,12.010066126797778
428,473,16818176,11.178098653099068
429,474,16826368,11.894687730628611
430,475,16826368,12.00439471378713
431,476,16826368,12.045092587555155
432,477,16826368,12.023334448036264
433,478,16826368,11.620764981280521
434,479,16826368,11.440251726266721
435,480,16826368,11.838716667839302
436,481,16826368,11.74405690850361
437,482,16826368,12.091347825961984
438,483,16826368,12.176749329157271
439,484,16826368,11.797016666619927
440,485,16826368,12.11196665790885
441,486,16826368,11.953635741058058
442,487,16826368,12.30153228441901
443,488,16826368,11.689491220221141
444,489,16826368,12.154232435040639
445,490,16826368,12.05862775731342
446,491,16826368,11.56581772790885
447,492,16826368,12.014817903729325
448,493,16826368,11.907886803241796
449,494,16826368,12.017297788354202
450,495,16826368,12.124813819074294
451,496,16826368,12.05807470597172
452,497,16826368,12.06277726001864
453,498,16826368,12.055033830158562
454,499,16826368,12.290031385421301
455,500,16826368,12.09246878312582
456,501,16826368,12.13880031511423
457,502,16826368,12.017572440608022
458,503,16826368,11.666157996509797
459,504,16826368,11.983875608581823
460,505,16826368,11.503313300167289
461,506,16826368,12.116990564278199
462,507,16826368,12.218919085743332
463,508,16826368,12.134607105073188
464,509,16826368,12.032964423937823
465,510,16826368,12.0766382520909
466,511,16826368,11.943055597945323
467,512,16826368,12.086076033015111
468,513,16826368,12.134038312319536
469,514,16826368,12.114478090236705
470,515,16826368,12.14581005425289
471,516,16826368,12.089123906139985
472,517,16826368,11.420118270907297
473,518,16826368,11.89954138334624
474,519,16826368,12.16689672825665
475,520,16826368,12.091912623361615
476,521,16826368,11.971333743610176
477,522,16826368,12.079351838424794
478,523,16826368,12.079906843312116
479,524,16826368,12.105248466553382
480,525,16826368,11.834952931312916
481,526,16826368,12.131527510913882
482,527,16826368,12.074913634608732
483,528,16826368,12.030108215699284
484,529,16826368,12.01359978866351
485,530,16826368,11.973616777213481
486,531,16826368,12.227532056056768
487,532,16826368,12.103010725308808
488,533,16826368,12.16607859696209
489,534,16826368,11.919282733568842
490,535,16826368,12.172283305759535
491,536,16826368,12.079638006451043
492,537,16826368,11.481335561407016
493,538,16834560,11.907254667716314
494,539,16834560,12.230925324380465
495,540,16834560,11.582116497052624
496,541,16834560,12.065812899397088
497,542,16834560,11.680713725180002
498,543,16834560,10.781605146613808
499,544,16834560,11.448896191467815
500,545,16834560,11.84846518423842
501,546,16834560,11.814372997258797
502,547,16834560,12.08051495123894
503,548,16834560,12.002438337510116
504,549,16834560,12.203094962639504
505,550,16834560,12.113651834400937
506,551,16834560,12.122034308377923
507,552,16834560,12.035414426574546
508,553,16834560,12.194043559261631
509,554,16834560,12.035139092240117
510,555,16834560,11.683048345558001
511,556,16834560,12.032936870997256
512,557,16834560,11.939438126065605
513,558,16834560,11.949489285283324
514,559,16834560,12.239186194622324
515,560,16834560,12.086898708638895
516,561,16834560,12.156523208481698
517,562,16834560,11.86585279896246
518,563,16834560,12.320681281589266
519,564,16834560,12.013958965209634
520,565,16834560,12.219836503242497
521,566,16834560,11.926445875828533
522,567,16834560,11.444156359745428
523,568,16834560,12.082179629063443
524,569,16834560,11.834854645767601
525,570,16834560,12.074683528869182
526,571,16834560,12.114767665282566
527,572,16834560,12.06111026729294
528,573,16834560,12.171438486899184
529,574,16834560,12.047282975066087
530,575,16834560,12.241179721357726
531,576,16834560,12.066643156346496
532,577,16834560,12.24745823132914
533,578,16834560,11.863971274837645
534,579,16834560,12.216715021981228
535,580,16834560,11.947860968259803
536,581,16834560,11.435690476303693
537,582,16834560,12.070804810665894
538,583,16834560,12.183012666032713
539,584,16834560,12.04093237232237
540,585,16834560,12.123431060271626
541,586,16834560,11.796598482624177
542,587,16834560,12.022203987891071
543,588,16834560,12.140795075186913
544,589,16834560,12.04038121122177
545,590,16834560,12.05833708785876
546,591,16834560,12.143877875635072
547,592,16834560,12.02963504984908
548,593,16834560,11.613597542971778
549,594,16834560,11.954385389349632
550,595,16834560,11.966358265141908
551,596,16834560,12.066366391334638
552,597,16834560,12.074129273661358
553,598,16834560,12.083289669181243
554,599,16834560,12.171728893410176
555,600,16834560,12.120079396334436
556,601,16834560,12.022753486046886
557,602,16842752,11.909266780554582
558,603,16842752,11.798899463041643
559,604,16842752,11.878333271036341
560,605,16842752,12.051489518205223
561,606,16842752,11.408481538078053
