idx,og Index,data (B),bandwidth (GB/s)
0,0,16785408,9.813204621828106
1,1,16785408,12.248054843099554
2,2,16785408,12.022355235667531
3,3,16785408,12.286506910580412
4,4,16785408,11.56179088028654
5,6,16785408,12.227783091612535
6,8,16785408,11.674247382312746
7,9,16785408,12.065494960792588
8,10,16785408,11.903936820247477
9,11,16785408,11.676058297486351
10,12,16785408,11.655829126990245
11,14,16785408,12.296002303109418
12,16,16785408,11.616070687106578
13,17,16785408,11.659189037502987
14,18,16785408,12.01189352504188
15,19,16785408,11.970219587752377
16,20,16785408,11.828773417371842
17,22,16785408,12.295146666510401
18,24,16785408,11.976514187739516
19,25,16785408,11.969673286135626
20,26,16785408,11.92558784578746
21,27,16785408,11.720147690520212
22,28,16785408,11.923419199754505
23,30,16785408,12.292832541050178
24,32,16785408,11.828773417371842
25,33,16785408,12.091639214714487
26,34,16785408,11.840789169239104
27,35,16785408,11.92288563044854
28,36,16785408,11.73825276665676
29,38,16785408,11.99046786332699
30,40,16785408,11.801893319383742
31,41,16785408,11.732730902360329
32,42,16785408,11.947598402470177
33,43,16785408,10.9979256129794
34,44,16785408,11.680478313876781
35,46,16785408,12.037805751758295
36,48,16785408,11.472769835926634
37,49,16785408,11.469014939079385
38,50,16785408,11.85149034958399
39,51,16785408,10.664105056511712
40,52,16785408,11.362435624583693
41,54,16785408,12.117617078169545
42,56,16785408,12.090245710173926
43,57,16785408,12.108936661376426
44,58,16785408,11.951128654670972
45,59,16785408,12.002823115509615
46,60,16785408,11.98636650897081
47,62,16785408,12.083839724018576
48,64,16785408,11.786512372552874
49,65,16785408,11.629720366931796
50,66,16785408,11.563567072225586
51,67,16785408,11.02080869824991
52,68,16785408,11.743245786421541
53,70,16785408,11.973506985980958
54,72,16785408,11.70393426711515
55,73,16785408,11.313414748398063
56,74,16785408,11.441988110437553
57,75,16785408,11.975967311433935
58,76,16785408,11.707852754574217
59,78,16785408,11.861942640050202
60,80,16785408,11.86060157261324
61,81,16785408,11.872413383353987
62,82,16785408,11.975967311433935
63,83,16785408,11.245743504124679
64,84,16785408,11.577612607392938
65,86,16785408,11.896385953746615
66,88,16785408,11.804823227332793
67,89,16785408,11.966396523306281
68,90,16785408,11.922614629406413
69,91,16785408,11.361935699166812
70,92,16785408,11.730894168031801
71,94,16785408,12.27729556440907
72,96,16785408,11.880211311866193
73,97,16785408,11.951128654670972
74,98,16785408,11.681778955631893
75,99,16785408,11.202273368869182
76,100,16785408,12.015470481745304
77,102,16785408,12.101961140563187
78,104,16785408,11.560007272607065
79,105,16785408,10.27090922107587
80,106,16785408,12.198218965244097
81,107,16785408,12.226643017652993
82,108,16785408,12.23748231130786
83,109,16785408,12.066050044316587
84,110,16785408,12.312173682148993
85,112,16785408,12.294273139369063
86,113,16785408,11.843195249572428
87,114,16785408,12.165393142465359
88,115,16785408,12.008310106623476
89,116,16785408,12.176972044789276
90,118,16785408,12.310719857071506
91,120,16785408,12.294282144170301
92,121,16785408,11.724863230716789
93,122,16785408,12.168215234075683
94,123,16785408,12.290816270492433
95,124,16785408,12.31245365062529
96,125,16785408,12.295714075375253
97,126,16785408,11.955222955749301
98,127,16785408,12.2237937626304
99,128,16785408,11.594246464825078
100,129,16785408,11.479054397837873
101,130,16785408,12.309853143391452
102,131,16785408,12.301201728941896
103,132,16785408,12.258645658894405
104,133,16785408,12.154117854062896
105,134,16785408,12.156089520525079
106,135,16785408,12.081334881280467
107,136,16785408,11.645736764874231
108,137,16785408,12.306974002378483
109,138,16785408,11.868115458366093
110,139,16785408,12.14145811136018
111,140,16785408,12.127983422240815
112,141,16785408,11.64262686235885
113,142,16785408,11.942702037360503
114,143,16785408,12.24205197622102
115,144,16785408,11.590651746841736
116,145,16785408,10.84512937275519
117,146,16785408,11.81386281049786
118,147,16785408,12.296011310443847
119,148,16785408,11.98801013867473
120,149,16785408,12.270689883305176
121,150,16785408,12.310439967436983
122,151,16785408,12.23862440767883
123,152,16785408,11.991564316372427
124,153,16785408,11.58911526487924
125,154,16785408,12.301481198648885
126,155,16785408,12.296578799118272
127,156,16785408,12.310142034391289
128,157,16785408,12.299173700265028
129,158,16785408,12.29831762225117
130,159,16785408,12.274422655466756
131,160,16785408,12.013544163463251
132,161,16785408,11.640301579464191
133,162,16785408,12.261797812726684
134,163,16785408,11.848545597262301
135,164,16785408,12.124619421889662
136,166,16785408,11.41186764594904
137,168,16785408,11.841866771831082
138,169,16785408,11.994580596477388
139,170,16785408,11.340082043854007
140,171,16785408,11.846939985432535
141,172,16785408,12.038634578765613
142,174,16785408,12.192539378729494
143,176,16785408,11.922614629406413
144,177,16785408,11.966951057536216
145,178,16785408,11.935899696792141
146,179,16785408,11.830382446493225
147,180,16785408,11.994863450534986
148,182,16785408,11.853365045110191
149,184,16785408,12.023181936369294
150,185,16785408,11.980890996884401
151,186,16785408,11.36071299008593
152,187,16785408,12.025662720778564
153,188,16785408,12.134155606913517
154,190,16785408,12.031455200852681
155,192,16785408,12.088016770860413
156,193,16785408,11.990476428589288
157,194,16785408,11.970492757261281
158,195,16785408,11.945149718155404
159,196,16785408,11.921522281376598
160,198,16785408,12.291392280299908
161,200,16785408,11.92885077182088
162,201,16785408,11.946501471835838
163,202,16785408,11.848018707909146
164,203,16785408,11.847207557184237
165,204,16785408,11.415592974123244
166,206,16785408,11.81039655512088
167,208,16785408,11.977873049762803
168,209,16785408,12.001441424951523
169,210,16785408,12.068262212482528
170,211,16785408,11.816257959149194
171,212,16785408,11.903675121604593
172,214,16785408,12.243775411507775
173,216,16785408,11.976779098905741
174,217,16785408,11.768530515404937
175,218,16785408,11.669045142847608
176,219,16785408,11.880211311866193
177,220,16785408,11.96394865570111
178,222,16785408,11.97378030555403
179,224,16785408,11.93156417333721
180,225,16785408,12.003647132102701
181,226,16785408,11.864894056175391
182,227,16785408,11.930478664614926
183,228,16785408,11.972140575262172
184,230,16785408,11.696626770652738
185,232,16785408,11.881834366229088
186,233,16785408,11.995686374560758
187,234,16785408,12.107827374061099
188,235,16785408,11.705240138130332
189,236,16785408,11.586307436592651
190,238,16785408,12.154681122070293
191,240,16785408,11.92749453380867
192,241,16785408,12.025662720778564
193,242,16785408,11.941062312547308
194,243,16785408,11.943517819494677
195,244,16785408,11.913678501035191
196,246,16785408,12.119576918994673
197,248,16785408,11.775275538959185
198,249,16785408,11.548935748608795
199,250,16785408,11.965722620119461
200,251,16785408,11.665282295054624
201,252,16785408,12.288953608405922
202,253,16785408,12.043480319774075
203,254,16785408,11.831041190899095
204,256,16793600,12.263347680102584
205,257,16793600,12.03912198486077
206,258,16793600,11.97539544561883
207,259,16793600,12.299561587892619
208,260,16793600,11.657494460579876
209,262,16793600,12.287178856827618
210,264,16793600,11.4842718350996
211,265,16793600,12.017076476338088
212,266,16793600,12.001403555913194
213,267,16793600,11.716835695268502
214,268,16793600,11.253282620655364
215,270,16793600,12.131518209630173
216,272,16793600,11.49937824912763
217,273,16793600,11.836022708451534
218,274,16793600,11.899358252621868
219,275,16793600,11.72023739733905
220,276,16793600,11.772301415668034
221,278,16793600,12.253039984940528
222,280,16793600,11.59977675734518
223,281,16793600,10.431040694077632
224,282,16793600,11.801147958466615
225,283,16793600,11.242186046075718
226,284,16793600,11.795055847695892
227,286,16793600,12.125640629445055
228,288,16793600,11.904216761995766
229,289,16793600,11.697770446857952
230,290,16793600,11.473232585467166
231,291,16793600,10.802723066363646
232,292,16793600,11.777056703593862
233,294,16793600,12.082361159974589
234,296,16793600,11.922344599036478
235,297,16793600,11.957931913499811
236,298,16793600,11.084752788415715
237,299,16793600,10.389938211989731
238,300,16793600,12.278850758763896
239,302,16793600,12.235337317647677
240,304,16793600,12.030850833668845
241,305,16793600,11.31637341822051
242,306,16793600,11.965565937581493
243,307,16793600,12.296976793058933
244,308,16793600,12.306483738258585
245,310,16793600,12.31342271299158
246,312,16793600,12.126481185959692
247,313,16793600,11.748574242907592
248,314,16793600,12.247320971465994
249,315,16793600,12.292647220290597
250,316,16793600,12.292359290343454
251,317,16793600,12.29380807469285
252,318,16793600,12.314280476626948
253,320,16793600,12.066534938027663
254,321,16793600,11.778634392131119
255,322,16793600,12.279991049739754
256,323,16793600,12.147533038691618
257,324,16793600,12.014041754689945
258,326,16793600,12.310525258656204
259,328,16793600,12.257332751374731
260,329,16793600,11.203314242637518
261,330,16793600,12.293223120652726
262,331,16793600,12.036912932069454
263,332,16793600,12.162163140829964
264,334,16793600,12.309947736085558
265,336,16793600,12.131518209630173
266,337,16793600,11.911241617283556
267,338,16793600,12.157091842016298
268,339,16793600,12.301291395336913
269,340,16793600,12.207711962665059
270,342,16793600,12.311969302187821
271,344,16793600,12.173739066643277
272,345,16793600,11.921794459506179
273,346,16793600,11.96611159801344
274,347,16793600,12.146127308101228
275,348,16793600,11.873781678136067
276,350,16793600,12.294672108644326
277,352,16793600,11.884806490445008
278,353,16793600,11.982496034636902
279,354,16793600,12.115283338744003
280,355,16793600,12.30186810594773
281,356,16793600,12.257332751374731
282,358,16793600,12.21994385415469
283,360,16793600,11.95955843865435
284,361,16793600,11.83709057486042
285,362,16793600,11.491069131436767
286,363,16793600,11.982504584341175
287,364,16793600,11.859300740782588
288,366,16793600,11.79080752877211
289,368,16793600,11.671243120550814
290,369,16793600,11.613389532210048
291,370,16793600,11.854470450295663
292,371,16793600,11.068621286479404
293,372,16793600,12.00333362400095
294,374,16793600,12.09684332147439
295,376,16793600,12.040503054649585
296,377,16793600,11.467967593376637
297,378,16793600,11.859024378876395
298,379,16793600,11.182537938565826
299,380,16793600,12.033057661745085
300,382,16793600,11.978393584552254
301,384,16793600,11.982769631225299
302,385,16793600,11.342543656730278
303,386,16793600,11.95846836242556
304,387,16793600,11.496859065989737
305,388,16793600,11.880779053561701
306,390,16793600,12.031118023680246
307,392,16793600,11.808317348528742
308,393,16793600,11.709523819484682
309,394,16793600,11.974293942619848
310,395,16793600,11.733339295395984
311,396,16793600,11.900437578613566
312,398,16793600,11.933451339507458
313,400,16793600,11.726268822422467
314,401,16793600,11.589010259492635
315,402,16793600,11.864386423382314
316,403,16793600,11.97210861414944
317,404,16793600,12.005796434206397
318,406,16793600,11.836556617570876
319,408,16793600,11.886421595100362
320,409,16793600,11.62624545157485
321,410,16793600,12.000863248070912
322,411,16793600,10.480829000022467
323,412,16793600,11.602854284466702
324,414,16793600,12.002501474082942
325,416,16793600,11.784726086660571
326,417,16793600,11.379188612138226
327,418,16793600,11.980307711623972
328,419,16793600,11.762794111878787
329,420,16793600,11.94404358961411
330,422,16793600,11.444958755186269
331,424,16793600,11.96611159801344
332,425,16793600,11.748582462056156
333,426,16793600,11.470215592460923
334,427,16793600,10.853437617744895
335,428,16793600,11.618531701967948
336,430,16793600,12.182216760703762
337,432,16793600,11.812046548759087
338,433,16793600,11.838158633976198
339,434,16793600,11.852060962570619
340,435,16793600,11.147383415665121
341,436,16793600,11.681626702132988
342,438,16793600,11.47523956858522
343,440,16793600,11.421793469685346
344,441,16793600,10.059915248856147
345,442,16793600,11.088500144601607
346,443,16793600,10.561188938724275
347,444,16793600,11.737021280759395
348,446,16793600,12.174021466339775
349,448,16793600,11.851793302172881
350,449,16793600,11.774150237921463
351,450,16793600,11.923699004985721
352,451,16793600,11.150699375455659
353,452,16793600,11.85607731978778
354,454,16793600,11.840829625200683
355,456,16793600,11.921252833263884
356,457,16793600,11.705075805309438
357,458,16793600,11.959013375699566
358,459,16793600,11.42601320343537
359,460,16793600,11.57342830836747
360,462,16793600,11.462699607184664
361,464,16793600,11.845640447964065
362,465,16793600,11.353348080282535
363,466,16793600,11.92396145672615
364,467,16793600,11.780757917687062
365,468,16793600,11.937523057796076
366,470,16793600,12.181085719342377
367,472,16793600,11.841355618608167
368,473,16793600,11.639912390141118
369,474,16793600,11.564502178811267
370,475,16793600,12.010467392384893
371,476,16793600,12.015975890200815
372,478,16793600,12.005255730762467
373,480,16793600,11.950843389269888
374,481,16793600,11.569601137559868
375,482,16793600,11.776263888840193
376,483,16793600,10.912120058272135
377,486,16793600,11.61595201336897
378,488,16793600,11.951668391304409
379,489,16793600,11.90718780466188
380,490,16793600,11.960648713633427
381,491,16793600,10.752480255596781
382,492,16793600,11.278434332817776
383,494,16793600,12.241321750184783
384,496,16793600,11.9169300507656
385,497,16793600,10.50894570749342
386,498,16793600,11.491320746454123
387,499,16793600,11.161853387683916
388,500,16793600,10.865797028495413
389,502,16793600,12.146408428190986
390,504,16793600,11.968840646848786
391,505,16793600,11.613124512477802
392,506,16793600,11.903946740726091
393,507,16793600,11.630883452918525
394,508,16793600,12.093785602046356
395,510,16793600,12.008826991257388
396,512,16801792,12.179960013396528
397,513,16801792,12.255583354608119
398,514,16801792,12.1279127345382
399,515,16801792,10.887334585243273
400,516,16801792,12.045832371442378
401,518,16801792,12.313353140083166
402,520,16801792,10.823142305920852
403,521,16801792,10.452957996033277
404,522,16801792,12.309311733772123
405,523,16801792,12.225059718140564
406,524,16801792,12.309600317671038
407,526,16801792,12.310177526064754
408,528,16801792,11.978503730763363
409,529,16801792,11.887634216886564
410,530,16801792,12.077697316305596
411,531,16801792,12.300372339413071
412,532,16801792,12.313930700485322
413,534,16801792,12.310466150561458
414,536,16801792,12.206009656248593
415,537,16801792,12.26618580559439
416,538,16801792,12.262739116155165
417,539,16801792,12.293469425085515
418,540,16801792,12.307003549605852
419,542,16801792,11.996292969636908
420,544,16801792,12.219645057171657
421,545,16801792,11.74326371998099
422,546,16801792,12.214812369958837
423,547,16801792,12.30642663881414
424,548,16801792,12.298643633568789
425,549,16801792,12.18164668147159
426,550,16801792,12.312486901057735
427,551,16801792,12.290870466578982
428,552,16801792,12.17177174566608
429,553,16801792,12.130705967887382
430,554,16801792,12.07157970667753
431,555,16801792,12.286556284707647
432,556,16801792,11.904353056789752
433,558,16801792,12.270476730208298
434,560,16801792,11.986981243802036
435,561,16801792,10.11251500916349
436,562,16801792,11.672255784097414
437,563,16801792,10.483638532746644
438,564,16801792,11.457287967312025
439,566,16801792,11.997654994241026
440,568,16801792,12.048320083985045
441,569,16801792,11.873126560389963
442,570,16801792,11.947694589764904
443,571,16801792,11.636041286919715
444,572,16801792,11.668624193700726
445,574,16801792,11.8476748949865
446,576,16801792,11.998211885817769
447,577,16801792,11.690707991694916
448,578,16801792,11.875543442536628
449,579,16801792,10.886657362159164
450,580,16801792,11.860253118808002
451,582,16801792,11.914347812213032
452,584,16801792,11.93059124686234
453,585,16801792,11.864273069489686
454,586,16801792,11.897339741161325
455,587,16801792,10.948631632175639
456,588,16801792,11.887104362597253
457,590,16801792,11.98561309145902
458,592,16801792,11.870979046424
459,593,16801792,11.313355270821592
460,594,16801792,12.066040161265535
461,595,16801792,11.993552725315547
462,596,16801792,11.985057368775836
463,598,16801792,12.083534344502219
464,600,16801792,11.989718485745888
465,601,16801792,10.509028043602811
466,602,16801792,11.635267721115758
467,603,16801792,11.125415751511207
468,604,16801792,11.65826066200756
469,606,16801792,11.940087053849023
470,608,16801792,11.727796170305735
471,609,16801792,11.317012977478178
472,610,16801792,11.700086348569677
473,611,16801792,11.187992835121223
474,612,16801792,11.633720898027464
475,614,16801792,11.994648672805178
476,616,16801792,12.024315152313218
477,617,16801792,11.874737705833338
478,618,16801792,11.943346239775488
479,619,16801792,10.665508820641145
480,620,16801792,11.61827525737267
481,622,16801792,12.099676296165605
482,624,16801792,11.966483176420565
483,625,16801792,11.38622847012518
484,626,16801792,11.640168709021276
485,627,16801792,10.891618561746622
486,628,16801792,11.513817848899999
487,630,16801792,12.024306547037577
488,632,16801792,11.927339017618634
489,633,16801792,10.336682758590989
490,634,16801792,11.878767483079864
491,635,16801792,11.781215313104994
492,636,16801792,11.94660720545333
493,638,16801792,12.098012249371042
494,640,16801792,11.78174403104439
495,641,16801792,11.69018741268083
496,642,16801792,11.97140279901446
497,643,16801792,11.462790837294852
498,644,16801792,11.985330948887302
499,646,16801792,11.883606827535624
500,648,16801792,11.850616342655059
501,649,16801792,11.33925386219012
502,650,16801792,11.621618331424271
503,651,16801792,12.095503975972829
504,652,16801792,11.998211885817769
505,654,16801792,12.147834951666896
506,656,16801792,11.89275857797597
507,657,16801792,11.882262169710112
508,658,16801792,11.905702719383465
509,659,16801792,10.564639897383016
510,660,16801792,11.552577875322475
511,662,16801792,11.884144775883984
512,664,16801792,11.768276530605812
513,665,16801792,11.756673999809674
514,666,16801792,12.029816443148354
515,667,16801792,12.034236616562787
516,668,16801792,11.895452952483442
517,670,16801792,11.960767172904347
518,672,16801792,11.8476748949865
519,673,16801792,12.025141316125856
520,674,16801792,11.922734726867217
521,675,16801792,11.780686642616997
522,676,16801792,11.658778401363376
523,678,16801792,11.51205073532233
524,680,16801792,11.867490992616807
525,681,16801792,11.937372424058346
526,682,16801792,11.356176188503234
527,683,16801792,10.65489679803768
528,684,16801792,12.011103366682036
529,686,16801792,12.2270436269694
530,688,16801792,11.955311826028918
531,689,16801792,11.731194387501466
532,690,16801792,11.981775381361341
533,691,16801792,10.51091485878403
534,692,16801792,11.9883411546538
535,694,16801792,11.11811271637477
536,696,16801792,12.021837341854571
537,697,16801792,11.704520249446881
538,698,16801792,11.3453869714829
539,699,16801792,11.669669665498203
540,700,16801792,12.070192175757738
541,702,16801792,12.216801836978352
542,704,16801792,11.9738513277086
543,705,16801792,10.127723494415276
544,706,16801792,11.064212341734434
545,707,16801792,11.635017945793525
546,708,16801792,11.819670758791174
547,710,16801792,12.236447031303028
548,712,16801792,11.935744238598495
549,713,16801792,11.614934106104933
550,714,16801792,12.010279130577125
551,715,16801792,10.81111521489304
552,716,16801792,11.372902752422744
553,718,16801792,11.397342938640673
554,720,16801792,12.046652857512617
555,721,16801792,11.807443939948685
556,722,16801792,11.99656706293956
557,723,16801792,10.294925510678008
558,724,16801792,11.913266489073935
559,726,16801792,12.252723387808382
560,728,16801792,12.048320083985045
561,729,16801792,11.84633000355352
