idx,og Index,data (B),bandwidth (GB/s)
0,0,33562624,12.227253203482965
1,1,33562624,12.1700762093249
2,2,33562624,11.666749166427973
3,3,33562624,12.33046894000792
4,4,33562624,11.85841118193253
5,6,33562624,12.26801394701261
6,9,33562624,12.34018902985607
7,10,33562624,12.30241036547325
8,13,33562624,12.333078802800081
9,14,33562624,12.296780627709632
10,16,33562624,12.094155513058757
11,17,33562624,12.343238780336213
12,18,33562624,12.243953743653687
13,19,33562624,12.343819856107912
14,21,33562624,12.347157561472523
15,22,33562624,12.301251543492116
16,25,33562624,12.345854052220792
17,27,33562624,12.347448277029176
18,29,33562624,12.34541355557264
19,31,33562624,12.349629080145991
20,32,33562624,12.071466413842689
21,33,33562624,12.343674582035987
22,34,33562624,12.265436028472882
23,35,33562624,12.344255698841364
24,37,33562624,12.349192857897144
25,39,33562624,12.33365438995628
26,41,33562624,12.345563411729135
27,43,33562624,12.345854052220792
28,45,33562624,12.34658071332348
29,47,33562624,12.351519732733422
30,48,33562624,12.188320245955309
31,49,33562624,12.292457028292782
32,50,33562624,12.241667216817772
33,51,33562624,12.346290038617765
34,53,33562624,12.346435374259768
35,55,33562624,12.347157561472523
36,57,33562624,12.344396446298166
37,59,33562624,12.339748937360817
38,61,33562624,12.349197401720069
39,63,33562624,12.346435374259768
40,64,33562624,12.181100953325279
41,65,33562624,12.342362730449677
42,66,33562624,12.275767678411736
43,67,33562624,12.344400986592145
44,69,33562624,12.34570873026441
45,71,33562624,12.32771528289454
46,73,33562624,12.344110414510478
47,75,33562624,12.344982171796643
48,77,33562624,12.347157561472523
49,79,33562624,12.347598182587422
50,80,33562624,12.196536396328824
51,81,33562624,12.308907416820515
52,82,33562624,12.242810373475011
53,83,33562624,12.346290038617765
54,85,33562624,12.346140164820593
55,87,33562624,12.342803009407893
56,89,33562624,12.347016751046066
57,91,33562624,12.344691572353877
58,93,33562624,12.341927021374943
59,95,33562624,12.32090436296984
60,96,33562624,12.047058823529412
61,97,33562624,12.341931559852584
62,98,33562624,12.24509732741363
63,99,33562624,12.347307459971878
64,101,33562624,12.341200907941325
65,103,33562624,12.344836870365071
66,105,33562624,12.346144706397348
67,107,33562624,12.344255698841364
68,109,33562624,12.349338261889264
69,111,33562624,12.34541355557264
70,112,33562624,12.168099521181388
71,113,33562624,12.345994836128561
72,114,33562624,12.275049328600714
73,115,33562624,12.34817966889157
74,117,33562624,12.349338261889264
75,119,33562624,12.346435374259768
76,121,33562624,12.344836870365071
77,123,33562624,12.347739006276031
78,125,33562624,12.346290038617765
79,127,33562624,12.337716752434542
80,128,33562624,12.17869642255176
81,129,33562624,12.341060233343997
82,130,33562624,12.008163195209704
83,131,33562624,12.345563411729135
84,133,33562624,12.346140164820593
85,135,33562624,12.348756666464304
86,137,33562624,12.342222029364542
87,139,33562624,12.34541809661484
88,141,33562624,12.345268243986107
89,143,33562624,12.3457041890084
90,144,33562624,12.230389997226878
91,145,33562624,12.33191419628183
92,146,33562624,12.047339903334477
93,147,33562624,12.345999377598398
94,149,33562624,12.345999377598398
95,151,33562624,12.343238780336213
96,153,33562624,12.345994836128561
97,155,33562624,12.334529204014656
98,157,33562624,12.347307459971878
99,159,33562624,12.346435374259768
100,160,33562624,12.11217246731575
101,161,33562624,12.344977631075132
102,162,33562624,12.304282075976301
103,163,33562624,12.34570873026441
104,165,33562624,12.345854052220792
105,167,33562624,12.3457041890084
106,168,33562624,12.267587955310873
107,170,33562624,12.086211596598408
108,172,33562624,12.343819856107912
109,174,33562624,12.310347622759158
110,176,33562624,12.342803009407893
111,177,33562624,12.329159893689514
112,178,33562624,12.346871401716507
113,179,33562624,12.312804425512807
114,180,33562624,12.289000337225401
115,182,33562624,12.2376678491355
116,184,33562624,12.328145460743105
117,186,33562624,12.288860850149865
118,188,33562624,12.34512293582031
119,190,33562624,12.16132717681064
120,192,33562624,12.304286586809926
121,193,33562624,12.284538320846615
122,194,33562624,12.284830591668198
123,195,33562624,12.335540154079286
124,196,33562624,12.317580834226986
125,198,33562624,12.338301844203988
126,200,33562624,12.262850232102698
127,202,33562624,12.285113882813715
128,204,33562624,12.310925605787004
129,206,33562624,12.280798482217836
130,208,33562624,12.314539229711677
131,209,33562624,12.226968120199624
132,210,33562624,12.303127411358242
133,211,33562624,12.30009744756284
134,212,33562624,12.309480749968733
135,214,33562624,12.329019493462384
136,216,33562624,12.289868827991175
137,218,33562624,12.34541355557264
138,220,33562624,12.316853062550116
139,222,33562624,12.310636607489021
140,224,33562624,12.201790789095302
141,225,33562624,12.261129959642993
142,226,33562624,12.343093519941217
143,227,33562624,12.33365438995628
144,228,33562624,12.27835443403809
145,230,33562624,12.343965133599367
146,232,33562624,12.308618513267405
147,234,33562624,12.344836870365071
148,236,33562624,12.282960298691213
149,238,33562624,12.34512293582031
150,240,33562624,12.279504453167561
151,241,33562624,12.293470099094618
152,242,33562624,12.348465889294136
153,243,33562624,12.334234563659114
154,244,33562624,12.267153025886566
155,246,33562624,12.322211656723267
156,248,33562624,12.345849510857871
157,250,33562624,12.341927021374943
158,252,33562624,12.348034292181097
159,254,33562624,12.343384044150259
160,256,33562624,12.275767678411736
161,257,33562624,12.333509355058604
162,258,33562624,12.345563411729135
163,259,33562624,12.329889120495038
164,260,33562624,12.261846681175628
165,262,33562624,12.343674582035987
166,264,33562624,12.344982171796643
167,266,33562624,12.343819856107912
168,268,33562624,12.278210696792513
169,270,33562624,12.314254579876794
170,272,33562624,12.28137818784063
171,273,33562624,12.337426494941353
172,274,33562624,12.283387358688957
173,275,33562624,12.319457164052167
174,276,33562624,12.344396446298166
175,278,33562624,12.305441469028716
176,280,33562624,12.22582791999047
177,282,33562624,12.342507973644407
178,284,33562624,12.286265168562359
179,286,33562624,12.28252427859535
180,288,33562624,12.306158868303228
181,289,33562624,12.274910158047227
182,290,33562624,12.34265322025758
183,291,33562624,12.33031945007254
184,292,33562624,12.220979990620148
185,294,33562624,12.341927021374943
186,296,33562624,12.23366663459043
187,298,33562624,12.286121246043288
188,300,33562624,12.234955480419586
189,302,33562624,12.288712367387664
190,304,33562624,12.328145460743105
191,305,33562624,12.32163261350178
192,306,33562624,12.28094228005897
193,307,33562624,12.332204194458805
194,308,33562624,12.341200907941325
195,310,33562624,12.34221749067327
196,312,33562624,12.342798470289315
197,314,33562624,12.31540229615126
198,316,33562624,12.306158868303228
199,318,33562624,12.344400986592145
200,320,33562624,12.313671766510533
201,321,33562624,12.316857582605671
202,322,33562624,12.344546277762943
203,323,33562624,12.332494206275339
204,324,33562624,12.3457041890084
205,326,33562624,12.343088980608965
206,328,33562624,12.328870038669805
207,330,33562624,12.343524771730683
208,332,33562624,12.341055695507155
209,334,33562624,12.338446991837998
210,336,33562624,12.115805919675166
211,337,33562624,12.344977631075132
212,338,33562624,12.22226616455871
213,339,33562624,12.342798470289315
214,341,33562624,12.345994836128561
215,343,33562624,12.347739006276031
216,345,33562624,12.34555887058003
217,346,33562624,12.036693983809116
218,349,33562624,12.344541737362086
219,350,33562624,12.099038533290122
220,352,33562624,12.20846173768555
221,353,33562624,12.343524771730683
222,354,33562624,12.00417752776196
223,355,33562624,12.343960593625997
224,356,33562624,12.286692458405696
225,358,33562624,12.045398558110556
226,361,33562624,12.337571621980775
227,362,33562624,12.04304729863561
228,365,33562624,12.344105874430243
229,367,33562624,12.34802520625035
230,368,33562624,12.225542903164587
231,369,33562624,12.345849510857871
232,370,33562624,12.10489899907958
233,371,33562624,12.342798470289315
234,373,33562624,12.346144706397348
235,375,33562624,12.3468668596051
236,377,33562624,12.347157561472523
237,378,33562624,12.13388748615341
238,381,33562624,12.340474879941642
239,383,33562624,12.349052001044951
240,384,33562624,11.88259385665529
241,385,33562624,12.340329684592449
242,386,33562624,12.060496123407033
243,387,33562624,12.343960593625997
244,389,33562624,12.34759363994127
245,391,33562624,12.348029749214051
246,393,33562624,12.345849510857871
247,395,33562624,12.345849510857871
248,396,33562624,11.998547131012748
249,398,33562624,12.267722475810059
250,400,33562624,11.83486088425875
251,401,33562624,12.098480274278067
252,402,33562624,12.195969104022465
253,403,33562624,12.345994836128561
254,405,33562624,12.344251158654258
255,407,33562624,12.34672151380455
256,409,33562624,12.347884376033585
257,411,33562624,12.346430832469164
258,413,33562624,12.341636565748459
259,415,33562624,12.348611276167462
260,416,33562624,12.236097383845458
261,417,33562624,12.344691572353877
262,418,33562624,12.262706857627439
263,419,33562624,12.347884376033585
264,421,33562624,12.344105874430243
265,423,33562624,12.346576171425944
266,424,33562624,12.303416057195415
267,426,33562624,12.06674010647814
268,429,33562624,12.342507973644407
269,430,33562624,12.269162029839222
270,432,33562624,12.152168300889652
271,433,33562624,12.34512293582031
272,434,33562624,12.251390858534146
273,435,33562624,12.343815316241404
274,437,33562624,12.343815316241404
275,439,33562624,12.343524771730683
276,441,33562624,12.341205445884956
277,443,33562624,12.347739006276031
278,445,33562624,12.346140164820593
279,446,33562624,11.991413732882487
280,448,33562624,12.179262109090223
281,449,33562624,12.34294826296515
282,450,33562624,12.287704579228446
283,451,33562624,12.34207679289952
284,453,33562624,12.344110414510478
285,455,33562624,12.349047457329025
286,456,33562624,12.307314102030512
287,459,33562624,12.343379504604316
288,461,33562624,12.348175125817551
289,462,33562624,11.993059148745187
290,464,33562624,12.223975548132875
291,465,33562624,12.343234240897116
292,466,33562624,12.180393639834758
293,467,33562624,12.346576171425944
294,469,33562624,12.344105874430243
295,471,33562624,12.344110414510478
296,472,33562624,12.097917705987353
297,475,33562624,12.34555887058003
298,477,33562624,12.347884376033585
299,480,33562624,12.241667216817772
300,481,33562624,12.342222029364542
301,482,33562624,12.284394438781392
302,483,33562624,12.342798470289315
303,485,33562624,12.343960593625997
304,487,33562624,12.345268243986107
305,489,33562624,12.34483232975045
306,491,33562624,12.344105874430243
307,493,33562624,12.347157561472523
308,494,33562624,11.910390897141445
309,496,33562624,12.256688155582037
310,497,33562624,12.3457041890084
311,498,33562624,12.281805137828332
312,499,33562624,12.34672151380455
313,501,33562624,12.34541355557264
314,502,33562624,12.283526721535628
315,505,33562624,12.34977449441084
316,507,33562624,12.346576171425944
317,509,33562624,12.34468703184614
318,511,33562624,12.248815450402562
319,512,33570816,12.08136531584427
320,513,33570816,12.34377742765167
321,514,33570816,11.363320215792905
322,515,33570816,10.447480512981542
323,517,33570816,12.346537592031325
324,519,33570816,12.189028833596025
325,521,33570816,12.228384388116645
326,523,33570816,12.308584891790114
327,525,33570816,12.269286194885034
328,527,33570816,12.336809874793794
329,528,33570816,11.992421059851337
330,529,33570816,12.34464892517383
331,530,33570816,12.238370094335599
332,531,33570816,12.3452299918914
333,533,33570816,12.345375267118081
334,535,33570816,12.314802274643128
335,537,33570816,12.347409479358038
336,539,33570816,12.349444362084117
337,541,33570816,12.349589736515382
338,543,33570816,12.335504334224147
339,544,33570816,12.025555026592057
340,545,33570816,12.291135769264706
341,546,33570816,12.169657651962051
342,547,33570816,12.347118836567033
343,548,33570816,12.227809814645916
344,553,33570816,12.348140688139232
345,555,33570816,12.331589369892038
346,557,33570816,12.347118836567033
347,559,33570816,12.32130631300202
348,560,33570816,12.174741923141783
349,561,33570816,12.347118836567033
350,562,33570816,12.25366551627851
351,563,33570816,12.346392289448008
352,565,33570816,12.343922668693418
353,567,33570816,12.345665827829036
354,569,33570816,12.344503667041124
355,571,33570816,12.347704677448423
356,573,33570816,12.346973520302498
357,575,33570816,12.327676889784728
358,576,33570816,12.34435841232685
359,577,33570816,12.329415463289388
360,578,33570816,12.30872930583314
361,579,33570816,12.320872195253001
362,580,33570816,12.338696143562036
363,582,33570816,12.345089259775992
364,584,33570816,12.336234133607318
365,586,33570816,12.341304315859128
366,588,33570816,12.337970587316493
367,590,33570816,12.34523453169048
368,592,33570816,12.344067913153118
369,593,33570816,12.329419991464738
370,594,33570816,12.344503667041124
371,595,33570816,12.333333578255065
372,596,33570816,12.341889605087514
373,598,33570816,12.333329047204606
374,600,33570816,12.331593899664334
375,602,33570816,12.328690998070865
376,604,33570816,12.332898612591816
377,606,33570816,12.305697322393735
378,608,33570816,12.280340519675867
379,609,33570816,12.266130190279338
380,610,33570816,12.347700135832435
381,611,33570816,12.294160580466567
382,612,33570816,12.337684922958415
383,614,33570816,12.34464892517383
384,616,33570816,12.343922668693418
385,618,33570816,12.30872930583314
386,620,33570816,12.331009586511666
387,622,33570816,12.347409479358038
388,624,33570816,12.309306995894431
389,625,33570816,12.280920040606166
390,626,33570816,12.346537592031325
391,627,33570816,12.335069215435915
392,628,33570816,12.33783002066178
393,630,33570816,11.75616684736475
394,632,33570816,12.289264012879801
395,634,33570816,11.766051578004012
396,636,33570816,12.344213161030888
397,638,33570816,11.85246110001723
398,640,33570816,12.301512752478107
399,641,33570816,12.331009586511666
400,642,33570816,11.709318779763079
401,643,33570816,12.33753529452623
402,644,33570816,12.343491494338751
403,646,33570816,12.306852187556707
404,648,33570816,12.341599222097432
405,650,33570816,12.128991233521303
406,652,33570816,12.336664801083925
407,654,33570816,12.342034801706887
408,656,33570816,12.3423252051949
409,657,33570816,12.334779153296966
410,658,33570816,12.016872610644178
411,659,33570816,12.337249650324464
412,660,33570816,12.307140937717556
413,662,33570816,12.098921142684151
414,664,33570816,12.336664801083925
415,666,33570816,11.992416775829419
416,668,33570816,12.30468699315873
417,670,33570816,12.139096123972704
418,672,33570816,12.308873723264966
419,673,33570816,12.299349436284361
420,674,33570816,12.344508206306026
421,675,33570816,12.331879282028035
422,676,33570816,12.301512752478107
423,678,33570816,12.079835082054162
424,680,33570816,11.867070827758443
425,682,33570816,12.029411680393073
426,684,33570816,12.035621993856497
427,686,33570816,12.049030501933828
428,688,33570816,11.922504538751992
429,689,33570816,12.34828148983526
430,690,33570816,11.963019240144023
431,691,33570816,12.346537592031325
432,692,33570816,12.027618782835999
433,694,33570816,12.041009454670665
434,696,33570816,12.070106305677271
435,698,33570816,12.04114765811289
436,700,33570816,12.022109830781368
437,702,33570816,12.027485198885774
438,704,33570816,11.966157662859832
439,705,33570816,12.30728531787915
440,706,33570816,12.064410960558206
441,707,33570816,12.348572187365624
442,708,33570816,12.016459679797949
443,710,33570816,12.03120942432582
444,712,33570816,12.072189724036523
445,714,33570816,12.093616800532581
446,716,33570816,12.044742061498807
447,718,33570816,11.996123598878246
448,720,33570816,11.900050512838236
449,721,33570816,12.346682898034766
450,722,33570816,12.07691045819915
451,723,33570816,12.345665827829036
452,724,33570816,12.037835967405043
453,726,33570816,12.003260860237814
454,728,33570816,12.040180300634955
455,730,33570816,11.970663494535776
456,732,33570816,11.890748039862968
457,734,33570816,12.01040661948007
458,736,33570816,11.922911037427868
459,737,33570816,12.308156182562513
460,738,33570816,11.958655476553483
461,739,33570816,12.348862898583244
462,740,33570816,11.998730460093842
463,742,33570816,12.026102133049806
464,744,33570816,11.972439450957344
465,746,33570816,12.043912393340241
466,748,33570816,12.018799996563072
467,750,33570816,12.025412873219336
468,752,33570816,11.872442774413155
469,753,33570816,12.345375267118081
470,754,33570816,12.007244946135028
471,755,33570816,12.345960942550937
472,756,33570816,12.007244946135028
473,758,33570816,12.01522105751418
474,760,33570816,11.943271373560226
475,762,33570816,12.043225410910818
476,764,33570816,11.995026311953145
477,766,33570816,12.006145623818012
478,768,33570816,11.949256935882067
479,769,33570816,12.346682898034766
480,770,33570816,11.9970838896338
481,771,33570816,12.347845469201205
482,772,33570816,11.992421059851337
483,774,33570816,12.076636754604174
484,776,33570816,11.994340609556367
485,778,33570816,12.008481924400986
486,780,33570816,11.932811055976568
487,782,33570816,12.017560891790884
488,784,33570816,11.79396165246355
489,785,33570816,12.347700135832435
490,786,33570816,11.994889165201732
491,787,33570816,12.347845469201205
492,788,33570816,11.95715616799022
493,790,33570816,11.983653793981832
494,792,33570816,12.01935079181859
495,795,33570816,12.345956402217585
496,796,33570816,11.959200772893992
497,798,33570816,11.940144942793976
498,800,33570816,11.918982710971873
499,801,33570816,12.34581111331355
500,802,33570816,11.940820215171408
501,803,33570816,12.346101694541257
502,804,33570816,11.972712721794728
503,806,33570816,12.009994132883044
504,808,33570816,11.976266378225343
505,812,33570816,11.827068990968032
506,814,33570816,11.980916651677502
507,816,33570816,11.903835516182015
508,817,33570816,12.347845469201205
509,818,33570816,12.019763921391151
510,819,33570816,12.346537592031325
511,820,33570816,11.980506188171812
512,822,33570816,12.008481924400986
513,824,33570816,11.968341884827206
514,826,33570816,11.9641106786982
515,828,33570816,11.938102602599576
516,831,33570816,12.342470412063783
517,832,33570816,11.780982229994136
518,833,33570816,12.345956402217585
519,834,33570816,12.030239351866452
520,835,33570816,12.348136146202497
521,836,33570816,11.985707471587745
522,838,33570816,12.034793581599438
523,840,33570816,11.974215934415565
524,842,33570816,12.05457281636021
525,844,33570816,12.008477628896625
526,846,33570816,12.018662305636784
527,848,33570816,12.141629369225678
528,849,33570816,12.348572187365624
529,850,33570816,12.234512074590443
530,851,33570816,12.348717541263467
531,853,33570816,12.34377742765167
532,855,33570816,12.343341725032916
533,857,33570816,12.345084720083754
534,858,33570816,12.046401740782951
535,861,33570816,12.346973520302498
536,862,33570816,12.049588396496121
537,864,33570816,12.130814482908145
538,865,33570816,12.349444362084117
539,866,33570816,12.027480889775493
540,867,33570816,12.345956402217585
541,869,33570816,12.348717541263467
542,870,33570816,12.088186524430181
543,873,33570816,12.346832748433053
544,874,33570816,12.10659604116359
545,877,33570816,12.345379807024008
546,878,33570816,12.134888093892906
547,880,33570816,12.074825410253533
548,881,33570816,12.349444362084117
549,882,33570816,12.084009360290182
550,883,33570816,12.34435841232685
551,884,33570816,12.220403099691604
552,887,33570816,12.345670367948667
553,889,33570816,12.345089259775992
554,890,33570816,12.082334954349534
555,892,33570816,11.978454292442732
556,894,33570816,12.092362221741949
557,896,33570816,11.90897042588877
558,897,33570816,12.340873324400478
559,898,33570816,12.092227195791704
560,899,33570816,12.342034801706887
561,901,33570816,12.34552054576392
