idx,og Index,data (B),bandwidth (GB/s)
0,0,33562624,9.570459135110289
1,1,33562624,12.319891288029092
2,3,33562624,12.342507973644407
3,5,33562624,12.109096012645006
4,7,33562624,12.106160854348229
5,9,33562624,11.97799305073761
6,11,33562624,12.13795976703883
7,13,33562624,12.157380122788632
8,15,33562624,11.76952058733592
9,17,33562624,12.23694948970514
10,19,33562624,11.594905135457356
11,21,33562624,11.978677052133865
12,23,33562624,12.1743141329617
13,25,33562624,12.018758683912738
14,26,33562624,12.25482642118035
15,28,33562624,12.31135912867629
16,30,33562624,12.045536896083425
17,33,33562624,12.344982171796643
18,35,33562624,12.04872387209104
19,37,33562624,12.244525508832261
20,39,33562624,12.240238571169636
21,41,33562624,12.17685830416038
22,43,33562624,12.31902307066918
23,45,33562624,11.824449541979327
24,47,33562624,12.07646583015973
25,49,33562624,12.195973535789078
26,51,33562624,12.34541355557264
27,53,33562624,12.34483232975045
28,55,33562624,12.022896166622306
29,57,33562624,12.10280812959522
30,59,33562624,12.18449720188707
31,61,33562624,12.196399000380472
32,63,33562624,12.273325632021368
33,64,33570816,11.868283287657285
34,65,33570816,11.922906802923794
35,67,33570816,12.27459768488506
36,69,33570816,12.34552054576392
37,71,33570816,12.00697009668291
38,73,33570816,12.19200359105157
39,75,33570816,12.343051273707955
40,77,33570816,11.963428506264878
41,79,33570816,11.896141449018991
42,81,33570816,12.196822944729062
43,83,33570816,12.346392289448008
44,84,33570816,12.345525085776698
45,86,33570816,12.344503667041124
46,88,33570816,12.342320667535303
47,91,33570816,12.348286031878917
48,93,33570816,12.349008259325077
49,95,33570816,12.319570025530284
50,97,33570816,12.350316660014016
51,99,33570816,11.987213949250005
52,101,33570816,12.120167620334959
53,103,33570816,11.861703740214862
54,105,33570816,12.342180001742642
55,107,33570816,12.208031140086753
56,109,33570816,11.950073613796677
57,111,33570816,12.134743343946006
58,113,33570816,12.272300260099177
59,115,33570816,12.326228453031675
60,117,33570816,12.281638902252311
61,119,33570816,12.111771944882495
62,121,33570816,12.236086209642764
63,123,33570816,12.278476540340783
64,125,33570816,12.32274906985144
65,127,33570816,12.212725445178856
66,128,33579008,11.836760678515292
67,129,33579008,11.512367246450449
68,131,33579008,12.3351785219022
69,133,33579008,12.329815792691413
70,135,33579008,11.784386384876514
71,137,33579008,11.836898373101034
72,139,33579008,12.153172133161876
73,141,33579008,11.970852714946968
74,143,33579008,11.650405347548311
75,145,33579008,11.32389557562532
76,147,33579008,11.62240802779769
77,149,33579008,12.251790116767607
78,151,33579008,12.349695753793194
79,153,33579008,12.308122684598887
80,155,33579008,12.258230652103839
81,157,33579008,12.346939390841815
82,159,33579008,12.345046523229998
83,161,33579008,12.125506673739485
84,163,33579008,12.011412251859356
85,165,33579008,11.792994866489028
86,167,33579008,12.301341208182722
87,169,33579008,12.108432448961342
88,171,33579008,12.103125423513774
89,173,33579008,11.894728191409472
90,175,33579008,12.02504348374154
91,177,33579008,12.271562572748067
92,179,33579008,12.219688690777065
93,181,33579008,12.032623060318262
94,183,33579008,12.339675212211569
95,185,33579008,12.263101326959351
96,187,33579008,12.135177877040057
97,189,33579008,12.102292259169703
98,191,33579008,12.002760931038562
99,192,33587200,11.77826677771446
100,193,33587200,11.555872086922266
101,195,33587200,12.154724923497378
102,197,33587200,12.002256998356565
103,199,33587200,12.238056788734365
104,201,33587200,12.348643888952209
105,203,33587200,11.78448213251297
106,205,33587200,11.742294067077546
107,207,33587200,11.112364669461478
108,209,33587200,11.968584745641918
109,211,33587200,12.22878880115111
110,213,33587200,12.285331685886273
111,215,33587200,12.225517170839911
112,217,33587200,12.322977720297551
113,219,33587200,12.230218185035795
114,221,33587200,12.342975915777064
115,223,33587200,12.34544395292976
116,225,33587200,12.344577305401414
117,227,33587200,12.235350689138263
118,229,33587200,11.933476779120964
119,231,33587200,12.172208158849868
120,233,33587200,11.966260810702485
121,235,33587200,12.194694230401268
122,237,33587200,11.988954535979143
123,239,33587200,11.743870667491382
124,241,33587200,12.02797713670171
125,243,33587200,12.134213639935332
126,245,33587200,12.199650724557667
127,247,33587200,11.706018175639763
128,249,33587200,12.001017616775814
129,251,33587200,12.061421779163135
130,253,33587200,12.34791297727155
131,255,33587200,12.256921230947091
132,256,33595392,11.834530569685356
133,257,33595392,11.788419377205368
134,259,33595392,12.291781048962026
135,261,33595392,12.344534718070578
136,263,33595392,11.721946598511876
137,265,33595392,11.857922602323907
138,267,33595392,11.83679472006545
139,269,33595392,11.67345696385944
140,271,33595392,11.720899660570614
141,273,33595392,12.185917313739367
142,275,33595392,12.013285082888734
143,277,33595392,12.287038249383553
144,279,33595392,12.254191161692521
145,281,33595392,12.286889955442943
146,283,33595392,12.335107115358984
147,285,33595392,12.343518745432547
148,287,33595392,12.340471830662565
149,289,33595392,12.00627842947774
150,291,33595392,11.349875117357252
151,293,33595392,11.166145453010504
152,295,33595392,11.576785636751962
153,297,33595392,12.185917313739367
154,299,33595392,11.378294146216232
155,301,33595392,11.685934987375024
156,303,33595392,12.176161025721319
157,305,33595392,12.194834851665423
158,307,33595392,12.154733615631974
159,309,33595392,12.188034932216524
160,311,33595392,12.216683879038241
161,313,33595392,12.32641748477974
162,315,33595392,12.22906877064621
163,317,33595392,12.118115893934629
164,319,33595392,12.19072833263481
165,320,33603584,11.692562931291251
166,321,33603584,12.34667378974167
167,323,33603584,12.346383464958933
168,325,33603584,12.286578746558936
169,327,33603584,11.647685390750297
170,329,33603584,12.047231583324969
171,331,33603584,11.93115887484129
172,333,33603584,12.28198027271129
173,335,33603584,11.875698727279989
174,337,33603584,11.92966367261678
175,339,33603584,11.884300285652547
176,341,33603584,12.28715379791616
177,343,33603584,12.309622863858003
178,345,33603584,12.156998120569364
179,347,33603584,12.274658565281982
180,349,33603584,12.24445487379354
181,351,33603584,12.012232582065005
182,353,33603584,12.010442251660553
183,355,33603584,12.218951900280715
184,357,33603584,12.2416045574713
185,359,33603584,12.344065892648938
186,361,33603584,12.343916255460957
187,363,33603584,12.346383464958933
188,365,33603584,12.345653177050115
189,367,33603584,12.31121032302123
190,369,33603584,12.333477820275617
191,371,33603584,12.347109302517843
192,373,33603584,12.345807392145524
193,375,33603584,12.246030030914284
194,377,33603584,11.856394854873447
195,379,33603584,12.347540308949542
196,381,33603584,12.3487064455945
197,383,33603584,12.242599118043957
198,384,33611776,11.696190709170672
199,385,33611776,12.346344980746817
200,387,33611776,12.347365459032497
201,389,33611776,12.34503901465276
202,391,33611776,12.345909628015102
203,393,33611776,12.226345308892604
204,395,33611776,12.34693003433154
205,397,33611776,12.348381569443761
206,399,33611776,12.34503901465276
207,401,33611776,12.33503577925526
208,403,33611776,12.22876514916959
209,405,33611776,12.350409753993278
210,407,33611776,12.34329815624152
211,409,33611776,12.274781349891665
212,411,33611776,12.34649010514716
213,413,33611776,12.34750607148538
214,415,33611776,12.34605474218091
215,417,33611776,12.302817053490086
216,419,33611776,11.685390695916727
217,421,33611776,12.305988097395597
218,423,33611776,12.323458100073218
219,425,33611776,12.240308143763034
220,427,33611776,12.253874021081675
221,429,33611776,11.466989540379172
222,431,33611776,12.241021388424851
223,433,33611776,12.30670901718125
224,435,33611776,11.964517699858469
225,437,33611776,11.959609185889333
226,439,33611776,12.013507601600097
227,441,33611776,12.224206505072724
228,443,33611776,12.22150405640866
229,445,33611776,11.939625134762153
230,446,33611776,12.093599006657424
231,448,33619968,11.62979444093913
232,449,33619968,11.487090336382096
233,451,33619968,12.294789995498245
234,453,33619968,12.209614808439241
235,455,33619968,11.882803354615424
236,457,33619968,11.84661821364667
237,459,33619968,12.035294016570203
238,461,33619968,11.897605471912849
239,463,33619968,12.017393424170425
240,465,33619968,11.940885103855965
241,467,33619968,12.325377066344833
242,469,33619968,12.345077937099528
243,471,33619968,12.32291944241119
244,473,33619968,12.32783567074747
245,475,33619968,12.211597178181247
246,477,33619968,12.088065343210417
247,479,33619968,12.186804092769144
248,481,33619968,12.14172242161503
249,483,33619968,11.97287617463037
250,485,33619968,11.738975495825537
251,487,33619968,12.101436192039392
252,489,33619968,11.700266858214347
253,491,33619968,11.502559338995663
254,493,33619968,12.092239199249864
255,495,33619968,12.10241198924677
256,496,33619968,11.844076564524032
257,499,33619968,12.344062617722155
258,501,33619968,12.162956274094398
259,503,33619968,11.700136559725044
260,505,33619968,11.872992060414587
261,507,33619968,11.94360425067667
262,509,33619968,12.223678254448357
263,511,33619968,12.173102992804756
264,512,33628160,11.863952566994604
265,513,33628160,12.094493988747153
266,515,33628160,12.342285007505605
267,517,33628160,12.346635238483369
268,518,33628160,12.257326823436358
269,521,33628160,12.342135522815115
270,523,33628160,12.342574927529743
271,524,33628160,12.307435554441332
272,526,33628160,12.338367892804794
273,529,33628160,12.34547940930826
274,531,33628160,12.344604749133481
275,533,33628160,12.322882312416633
276,535,33628160,12.344024731980886
277,537,33628160,12.343734743843395
278,539,33628160,12.327801832298261
279,541,33628160,12.324910178631182
280,543,33628160,12.311770264367905
281,545,33628160,12.070452514187057
282,547,33628160,12.3447497619385
283,549,33628160,12.343734743843395
284,551,33628160,12.345184820795964
285,553,33628160,12.343014363532857
286,555,33628160,12.30816079736943
287,557,33628160,12.330116132362955
288,559,33628160,12.312491510213556
289,561,33628160,12.310035112791423
290,563,33628160,12.24318487310517
291,565,33628160,12.3447497619385
292,567,33628160,12.340690690800894
293,569,33628160,12.339966137544392
294,571,33628160,12.344604749133481
295,573,33628160,12.30816079736943
296,575,33628160,12.342719892649532
297,576,33636352,11.934631998075492
298,577,33636352,12.343117158573415
299,579,33636352,12.343841905356062
300,581,33636352,12.307411299458181
301,583,33636352,12.345436647901819
302,585,33636352,12.345871649204149
303,587,33636352,12.340214495014402
304,589,33636352,12.343547466711193
305,591,33636352,11.877574268491246
306,593,33636352,12.249449734663584
307,595,33636352,12.34253742241962
308,597,33636352,12.340943428762213
309,599,33636352,12.346021187981952
310,601,33636352,12.3429722194293
311,603,33636352,12.293732184673054
312,605,33636352,12.341667920291476
313,607,33636352,12.207190539199711
314,609,33636352,12.022012247055557
315,610,33636352,11.885493955196297
316,613,33636352,12.34122868714931
317,615,33636352,12.227927995721942
318,616,33636352,11.232864433942826
319,619,33636352,12.33254101729566
320,621,33636352,12.320398808117547
321,623,33636352,12.34253289344531
322,625,33636352,12.346886771467522
323,627,33636352,12.340363896778758
324,629,33636352,12.343112629173637
325,631,33636352,12.344562206789439
326,633,33636352,12.341957740721796
327,635,33636352,12.344127297755833
328,637,33636352,12.340363896778758
329,639,33636352,12.346016656450612
330,640,33644544,11.77413511689955
331,641,33644544,12.34221016047842
332,643,33644544,12.332940008203742
333,644,33644544,12.319063116053043
334,647,33644544,12.343364814935068
335,649,33644544,12.34177099569307
336,650,33644544,11.963895535587604
337,653,33644544,12.344814098779665
338,655,33644544,11.763727856829174
339,656,33644544,12.216973780628182
340,658,33644544,12.338589116663133
341,661,33644544,12.343079527269605
342,663,33644544,12.226639062324542
343,665,33644544,12.344963575534441
344,667,33644544,12.29643864434358
345,669,33644544,12.062889216753105
346,671,33644544,12.041332985933156
347,673,33644544,12.197127391650012
348,675,33644544,12.14217855542026
349,677,33644544,12.148492006693045
350,679,33644544,12.023565005859089
351,681,33644544,12.14933429628961
352,683,33644544,12.143160216814923
353,685,33644544,11.909138888033462
354,687,33644544,11.877912678771276
355,689,33644544,11.937538630320518
356,691,33644544,12.095649138373297
357,693,33644544,11.928054192283053
358,695,33644544,12.020811345198648
359,697,33644544,12.195854042158462
360,699,33644544,12.316321241247222
361,701,33644544,12.163534786662554
362,703,33644544,12.054038076873884
363,704,33652736,12.161853337443572
364,705,33652736,11.814319968263664
365,706,33652736,12.231749732213702
366,709,33652736,12.345790501080948
367,711,33652736,12.324373101138804
368,712,33652736,12.260278578972544
369,714,33652736,12.312685315544993
370,717,33652736,12.343906659042066
371,719,33652736,11.845067150614767
372,721,33652736,12.147239281519433
373,723,33652736,12.256987553886296
374,725,33652736,12.137145445640469
375,727,33652736,12.271728309614783
376,729,33652736,12.267711093192029
377,731,33652736,12.306057671773479
378,733,33652736,12.344341340790935
379,735,33652736,12.228620640160758
380,737,33652736,12.215548239325422
381,739,33652736,12.057526025478186
382,741,33652736,11.824282607244376
383,743,33652736,11.59797684315296
384,745,33652736,11.937869946328295
385,747,33652736,11.870076787685752
386,749,33652736,11.869406930605766
387,751,33652736,11.97417062926712
388,753,33652736,12.096789453176111
389,755,33652736,11.646544181977253
390,757,33652736,12.203070137109293
391,759,33652736,12.341733709410825
392,761,33652736,12.307061265165437
393,763,33652736,12.12902211987978
394,765,33652736,12.34376177192857
395,767,33652736,12.24728106989954
396,768,33660928,12.079578037449249
397,769,33660928,12.342710136547092
398,771,33660928,12.344593154917439
399,773,33660928,12.341406844928962
400,775,33660928,12.296386620468207
401,777,33660928,12.314096654579723
402,779,33660928,12.285898032047571
403,781,33660928,11.99224622545015
404,783,33660928,12.123999959659818
405,785,33660928,12.243413890544861
406,787,33660928,12.184968955611158
407,789,33660928,12.21242207811526
408,791,33660928,12.152161371632886
409,793,33660928,12.174105891547837
410,795,33660928,11.975176563169272
411,797,33660928,12.22789612605066
412,799,33660928,12.205615806380612
413,801,33660928,12.076804348964817
414,803,33660928,11.970811371743903
415,805,33660928,11.678876527215612
416,807,33660928,11.799032197570504
417,809,33660928,11.814541383098582
418,811,33660928,11.722746237053444
419,813,33660928,11.757875481034398
420,815,33660928,11.934133623866758
421,817,33660928,11.612970979067903
422,819,33660928,12.168331903611827
423,821,33660928,12.290065293279389
424,823,33660928,11.77485804796006
425,825,33660928,11.142335271106132
426,827,33660928,11.678617201025581
427,829,33660928,12.13673388078133
428,831,33660928,12.343434306394023
429,832,33669120,12.110619208008828
430,833,33669120,12.274694947447475
431,835,33669120,12.151889962428132
432,837,33669120,12.193730006305268
433,839,33669120,12.325606595305384
434,841,33669120,12.34209350397417
435,843,33669120,11.7477288119271
436,845,33669120,12.236993175526392
437,847,33669120,12.29908713329169
438,849,33669120,12.14122849942105
439,851,33669120,12.145573207038195
440,853,33669120,12.245542825968357
441,855,33669120,12.345134544217233
442,857,33669120,12.311040516704255
443,859,33669120,12.083350380382472
444,861,33669120,12.083211612818946
445,863,33669120,12.053027547633436
446,865,33669120,12.2384165466844
447,867,33669120,11.777192225800595
448,869,33669120,11.726906063877957
449,871,33669120,11.811707964288207
450,873,33669120,11.888737995309352
451,875,33669120,12.224193280184961
452,877,33669120,11.78286760568112
453,879,33669120,11.810121120920982
454,881,33669120,11.815160717757314
455,883,33669120,12.308587685168295
456,885,33669120,12.34354143149962
457,887,33669120,11.795685125802326
458,889,33669120,12.144175729048314
459,891,33669120,11.910144156483646
460,893,33669120,12.330806800835601
461,895,33669120,11.955353205233365
462,896,33677312,12.118866493265719
463,897,33677312,11.936962984308801
464,898,33677312,11.996031874661382
465,899,33677312,12.196127058441784
466,900,33677312,12.037064823409528
467,901,33677312,11.72936713481072
468,902,33677312,12.234847904124614
469,903,33677312,12.125009900961581
470,904,33677312,11.838112837327902
471,905,33677312,12.196131475230425
472,906,33677312,11.968329726792541
473,907,33677312,11.585871127170245
474,908,33677312,12.050300422796065
475,909,33677312,12.074365095129068
476,910,33677312,12.071175438502166
477,911,33677312,12.074360766094726
478,912,33677312,12.008355173311369
479,913,33677312,12.230013788915919
480,914,33677312,11.899971484431454
481,915,33677312,12.207307352553643
482,916,33677312,12.045197416799956
483,917,33677312,12.270805649247752
484,918,33677312,11.948622499121877
485,919,33677312,12.013975566303674
486,920,33677312,12.166232613958254
487,921,33677312,12.152039634399367
488,922,33677312,12.073949521986883
489,923,33677312,12.16074553342197
490,924,33677312,12.097131048464586
491,925,33677312,12.03885916270344
492,926,33677312,12.059279959121222
493,927,33677312,11.948758159545683
494,928,33677312,11.803848403777112
495,929,33677312,12.073949521986883
496,930,33677312,12.15007112760433
497,931,33677312,12.21169842094633
498,932,33677312,11.82202223967272
499,933,33677312,12.210281602154518
500,934,33677312,12.021111441884639
501,935,33677312,11.752822054074276
502,936,33677312,11.812729442351174
503,937,33677312,11.951743468425786
504,938,33677312,12.074083714353424
505,939,33677312,12.046433981667784
506,940,33677312,11.802657001360148
507,941,33677312,12.021248753338412
508,942,33677312,12.057203250262788
509,943,33677312,12.204900687740162
510,944,33677312,11.735780294790926
511,945,33677312,12.293888267087787
512,946,33677312,12.060657630478941
513,947,33677312,12.233279063803385
514,948,33677312,12.255654135885585
515,949,33677312,12.173973019194698
516,950,33677312,12.092960925630614
517,951,33677312,12.211840120909768
518,952,33677312,11.765702684771737
519,953,33677312,11.985921824055543
520,954,33677312,12.163837722609134
521,955,33677312,12.16567005933405
522,956,33677312,12.229725107000478
523,957,33677312,12.305109220214728
524,958,33677312,12.11705258673667
525,959,33677312,12.344662028740286
