idx,og Index,data (B),bandwidth (GB/s)
0,1,67321856,12.35364735419584
1,3,67321856,12.296314750677722
2,4,67321856,11.013094293175799
3,5,67321856,12.354663013467349
4,6,67321856,10.858144956754904
5,7,67321856,12.35168678805919
6,9,67321856,12.35248680520324
7,11,67321856,12.353645087286042
8,12,67321856,10.998067713033494
9,13,67321856,12.355096079695882
10,14,67321856,10.823566105937154
11,15,67321856,12.35190434620193
12,17,67321856,12.338357856029335
13,19,67321856,12.355023521980215
14,20,67338240,10.878585895497903
15,21,67338240,12.354837869246658
16,22,67338240,10.848860976767783
17,23,67338240,12.354692796038762
18,25,67338240,12.35563583279419
19,27,67338240,12.335575252364732
20,28,67338240,10.828707212503094
21,29,67338240,12.353242251320752
22,30,67338240,10.817462674842574
23,31,67338240,12.353387290464822
24,33,67338240,12.353532333014734
25,35,67338240,12.355998577573441
26,36,67338240,10.871785300684405
27,37,67338240,12.353242251320752
28,38,67338240,10.904460727612438
29,39,67338240,12.353532333014734
30,41,67338240,12.354837869246658
31,43,67338240,12.353532333014734
32,44,67338240,10.899998559362597
33,45,67338240,12.353462077604298
34,46,67338240,10.885789179721252
35,47,67338240,12.282293664293924
36,49,67338240,12.33000752563936
37,51,67338240,12.31845896331257
38,52,67338240,10.93454834377209
39,53,67338240,12.321921259877099
40,54,67338240,10.892043505259261
41,55,67338240,12.354765332216838
42,57,67338240,12.353387290464822
43,59,67338240,12.353677378970607
44,60,67338240,10.9555564377209
45,61,67338240,12.355055485446744
46,62,67338240,10.867630447655111
47,63,67338240,12.23814741519173
48,65,67338240,12.252826785008217
49,67,67338240,12.237293390325888
50,68,67338240,10.957781334638625
51,69,67338240,12.353967481100725
52,70,67338240,10.894186277334663
53,71,67338240,12.356944081256279
54,73,67338240,12.353459811314039
55,75,67338240,12.353462077604298
56,76,67338240,10.946608933472659
57,77,67338240,12.29226415951957
58,78,67338240,10.91735939560282
59,79,67338240,12.353749903225818
60,81,67338240,12.352079794980199
61,83,67338240,12.28086006931007
62,84,67338240,10.923026338093534
63,85,67338240,12.353677378970607
64,86,67338240,10.916566492851926
65,87,67338240,12.355055485446744
66,89,67338240,12.354185066639856
67,91,67338240,12.354332394533643
68,92,67338240,10.977787088291658
69,93,67338240,12.355998577573441
70,94,67338240,10.885676555044343
71,95,67338240,12.353894954290862
72,97,67338240,12.355128025883698
73,99,67338240,12.354620260712418
74,100,67338240,10.92949560698753
75,101,67338240,12.352227072665793
76,102,67338240,10.950368523518701
77,103,67338240,12.353097215582407
78,105,67338240,12.353387290464822
79,107,67338240,12.35440265984362
80,108,67338240,10.926939959812344
81,109,67338240,12.355998577573441
82,110,67338240,10.938472004641905
83,111,67338240,12.352807154322402
84,113,67338240,12.353604855566918
85,115,67338240,12.351719545905611
86,116,67338240,10.932616855340685
87,117,67338240,12.355055485446744
88,118,67338240,10.958350183281325
89,119,67338240,12.354042275265309
90,121,67338240,12.351864549295573
91,123,67338240,12.334343821035606
92,124,67338240,10.94791880054237
93,125,67338240,12.35454772623779
94,126,67338240,10.906212703267949
95,127,67338240,12.352879668360355
96,129,67338240,12.113032985582704
97,131,67338240,12.353677378970607
98,132,67338240,10.939893671981768
99,133,67338240,12.355128025883698
100,134,67338240,10.88894361711572
101,135,67338240,12.356071129085235
102,137,67338240,12.353604855566918
103,139,67338240,12.353967481100725
104,140,67338240,10.909435547511963
105,141,67338240,12.353967481100725
106,142,67338240,10.962576490959139
107,143,67338240,12.354910407128239
108,145,67338240,12.353677378970607
109,147,67338240,12.25932481287383
110,148,67338240,10.910625159191705
111,149,67338240,12.311468174553172
112,150,67338240,10.938754531603902
113,151,67338240,12.232956161854197
114,153,67338240,12.316656454341762
115,155,67338240,12.35440265984362
116,156,67338240,10.917076202826873
117,157,67338240,12.303478134719116
118,158,67338240,10.918437432507895
119,159,67338240,12.297366643863409
120,161,67338240,12.354692796038762
121,163,67338240,12.351864549295573
122,164,67338240,10.892720079055975
123,165,67338240,12.291187185582247
124,166,67338240,10.930629271055363
125,167,67338240,12.308299710361725
126,169,67338240,12.326179666726828
127,171,67338240,12.354257596856131
128,172,67338240,11.00212467134909
129,173,67338240,12.353097215582407
130,174,67338240,10.886915554678918
131,175,67338240,12.212649291025754
132,177,67338240,12.35621396736399
133,179,67338240,12.314277950063511
134,180,67338240,10.8864086571036
135,181,67338240,12.355493007881558
136,182,67338240,10.92886944268937
137,183,67338240,12.354042275265309
138,185,67338240,12.356433899424733
139,187,67338240,12.334994528424168
140,188,67338240,10.954815006178716
141,189,67338240,12.32242634074394
142,190,67338240,10.95344647310626
143,191,67338240,12.239786854190774
144,193,67338240,12.287383388607324
145,195,67338240,12.27054805628637
146,196,67338240,10.944557557053695
147,197,67338240,12.32509674190895
148,198,67338240,10.96823331576372
149,199,67338240,12.260322545581863
150,201,67338240,12.352446862820235
151,202,67338240,10.918380781591006
152,204,67338240,10.936823333365817
153,205,67338240,12.354330127924047
154,206,67338240,10.854345035022861
155,207,67338240,12.156769009574743
156,209,67338240,12.35542046315873
157,211,67338240,12.353462077604298
158,212,67338240,10.882240862896666
159,213,67338240,12.354912673950764
160,214,67338240,10.905534452364776
161,215,67338240,12.353894954290862
162,217,67338240,12.354330127924047
163,218,67338240,10.956469106635558
164,220,67338240,10.860899594374958
165,221,67338240,12.354765332216838
166,222,67338240,10.859328510207616
167,223,67338240,12.308731677624905
168,225,67338240,12.353894954290862
169,227,67338240,12.353749903225818
170,228,67338240,11.005864935842663
171,229,67338240,12.353822428332565
172,230,67338240,10.822801960691661
173,231,67338240,12.354040008762167
174,233,67338240,12.316726291739913
175,235,67338240,12.321704809323313
176,236,67338240,10.98231497724217
177,237,67338240,11.978576749924754
178,238,67338240,10.93352570606622
179,239,67338240,12.26839966440477
180,241,67338240,12.214563281671309
181,243,67338240,12.290615119932452
182,244,67338240,10.97841887072256
183,245,67338240,12.353459811314039
184,246,67338240,10.957494257904889
185,247,67338240,12.341650144111867
186,249,67338240,12.341071109812745
187,250,67338240,10.890183360613412
188,252,67338240,10.94177083881736
189,253,67338240,12.353242251320752
190,254,67338240,10.915152650794814
191,255,67338240,12.352879668360355
192,257,67338240,12.354257596856131
193,259,67338240,12.082433272596615
194,260,67338240,11.046888162508663
195,261,67338240,12.353459811314039
196,262,67338240,10.930971722879152
197,263,67338240,12.353389556728471
198,264,67338240,12.337453376069112
199,266,67338240,12.309235677755018
200,268,67338240,12.25268632703482
201,269,67338240,12.35258961731653
202,270,67338240,12.324447078348854
203,271,67338240,12.350704617494147
204,272,67338240,12.34273597988745
205,274,67338240,12.326540683956004
206,276,67354624,10.936697350643142
207,277,67354624,12.353782162106445
208,278,67354624,10.938516117978454
209,279,67354624,12.35283963758688
210,280,67354624,10.92840689368826
211,281,67354624,12.353202129997017
212,282,67354624,10.855138253701412
213,283,67354624,12.350302786264399
214,284,67354624,10.930677001438337
215,285,67354624,12.339080672445638
216,286,67354624,10.934596929886366
217,287,67354624,12.346897795968827
218,288,67354624,10.90140834584306
219,289,67354624,12.316985813488834
220,290,67354624,11.011998412157588
221,291,67354624,12.344146197439265
222,292,67354624,11.05683149544255
223,293,67354624,12.352042229164077
224,294,67354624,11.0496901705686
225,295,67354624,12.343496944758993
226,296,67354624,11.060664441657892
227,297,67354624,12.35457979520136
228,298,67354624,10.921093986627726
229,299,67354624,12.196014431412314
230,300,67354624,11.17328045729172
231,301,67354624,12.355450057874934
232,302,67354624,10.90943169407227
233,303,67354624,12.355377531302727
234,304,67354624,11.07317675440262
235,305,67354624,12.353564643682361
236,306,67354624,11.016321027085695
237,307,67354624,12.352984631998032
238,308,67354624,10.993248796946192
239,309,67354624,12.354434763341231
240,310,67354624,11.027402400681606
241,311,67354624,12.339589298509074
242,312,67354624,11.077547541783828
243,313,67354624,12.351969742594187
244,314,67354624,11.223986052884259
245,315,67354624,12.34067224655172
246,316,67354624,11.10361059351854
247,317,67354624,12.354217221935475
248,318,67354624,10.941472905428466
249,319,67354624,12.353784427963673
250,320,67354624,11.087117028955388
251,321,67354624,12.340310489111776
252,322,67354624,11.121796696615574
253,323,67354624,12.352334449276837
254,324,67354624,11.091031273243665
255,325,67354624,12.356900768148353
256,326,67354624,11.127737156936911
257,327,67354624,12.354146975826236
258,328,67354624,11.137570390482702
259,329,67354624,12.35515995669479
260,330,67354624,11.000085577566919
261,331,67354624,12.353129629813035
262,332,67354624,11.183612176631492
263,333,67354624,12.355014911213255
264,334,67354624,11.122738882607262
265,335,67354624,12.353202129997017
266,336,67354624,11.1919969505356
267,337,67354624,12.35472483046666
268,338,67354624,11.043778401754421
269,339,67354624,12.348636279801072
270,340,67354624,11.189795474217059
271,341,67354624,12.352477166450077
272,342,67354624,11.1023806584257
273,343,67354624,12.35610283534289
274,344,67354624,11.158947171355532
275,345,67354624,12.351244923684266
276,346,67354624,10.998533629524928
277,347,67354624,12.336260254327469
278,348,67354624,11.109177992109808
279,349,67354624,12.355667642700457
280,350,67354624,11.023475198801723
281,351,67354624,12.35117244647184
282,352,67354624,11.145768200153995
283,353,67354624,12.353057130480043
284,354,67354624,11.126737142727817
285,355,67354624,12.356538058643205
286,356,67354624,11.139989037746341
287,357,67354624,12.212360453670284
288,358,67354624,11.093720265394301
289,359,67354624,12.353999688190681
290,360,67354624,11.156756828385744
291,361,67354624,12.353347132918024
292,362,67354624,10.946140559922878
293,363,67354624,12.35233218395147
294,364,67354624,11.123914543152292
295,365,67354624,12.353129629813035
296,366,67354624,11.020877852877863
297,367,67354624,12.35327463103201
298,368,67354624,11.210117605783125
299,369,67354624,12.351824772006653
300,370,67354624,11.05758480183082
301,371,67354624,12.350955019938043
302,372,67354624,11.181413997339222
303,373,67354624,12.353347132918024
304,374,67354624,10.930506710643181
305,375,67354624,12.352912134366981
306,376,67354624,11.157466516232047
307,377,67354624,12.352984631998032
308,378,67354624,10.907905218673505
309,379,67354624,12.354144709836012
310,380,67354624,11.234050161635793
311,381,67354624,12.343784236301174
312,382,67354624,11.240229348351763
313,383,67354624,12.343784236301174
314,384,67354624,11.220635355885456
315,385,67354624,12.305464420374769
316,386,67354624,11.120212053746478
317,387,67354624,12.35436224868807
318,388,67354624,11.213103597302913
319,389,67354624,12.352549658975661
320,390,67354624,11.20194413149897
321,391,67354624,12.352912134366981
322,392,67354624,11.154510079026805
323,393,67354624,12.35327463103201
324,394,67354624,11.033762962552816
325,395,67354624,12.355087433528324
326,396,67354624,11.190271395709013
327,397,67354624,12.29195205245082
328,398,67354624,11.055437695518858
329,399,67354624,12.353347132918024
330,400,67354624,11.237047043374693
331,401,67354624,12.35515995669479
332,402,67354624,11.036885409763967
333,403,67354624,12.35472483046666
334,404,67354624,11.131032593094739
335,405,67354624,12.296837510684826
336,406,67354624,10.995028988317829
337,407,67354624,12.333947027915107
338,408,67354624,11.113342536892198
339,409,67354624,12.354652312408355
340,410,67354624,11.024112096147881
341,411,67354624,12.355305005581977
342,412,67354624,11.121389016487587
343,413,67354624,12.354074464551376
344,414,67354624,10.985271938985122
345,415,67354624,12.354434763341231
346,416,67354624,11.106483333503725
347,417,67354624,12.32794888178446
348,418,67354624,10.960559827285802
349,419,67354624,12.339878668938196
350,420,67354624,11.143702866903357
351,421,67354624,12.33900833792236
352,422,67354624,11.072301190630402
353,423,67354624,12.354434763341231
354,424,67354624,11.162614454518742
355,425,67354624,12.350810073168255
356,426,67354624,10.934595154724045
357,427,67354624,12.353927178644781
358,428,67354624,11.100506995476215
359,429,67354624,12.35472483046666
360,430,67354624,10.93715376176536
361,431,67354624,12.354072198587753
362,432,67354624,11.101326645195137
363,433,67354624,12.354577529052358
364,434,67354624,10.896554870457997
365,435,67354624,12.34986800208439
366,436,67354624,11.099511869235469
367,437,67354624,12.352694646579465
368,438,67354624,11.015629180663542
369,439,67354624,12.35327463103201
370,440,67354624,11.033298452921601
371,441,67354624,12.353927178644781
372,442,67354624,11.066074304039358
373,443,67354624,12.353999688190681
374,444,67354624,11.169606163673661
375,445,67354624,12.266092746419995
376,446,67354624,11.038795547680062
377,447,67354624,12.338719008309882
378,448,67354624,11.219259756254786
379,449,67354624,12.352114716584735
380,450,67354624,11.00250058970008
381,451,67354624,12.32217748205769
382,452,67354624,11.097112592784686
383,453,67354624,12.246894257191851
384,454,67354624,11.102204975655122
385,455,67354624,12.35486986913725
386,456,67354624,11.119095913653725
387,457,67354624,12.303160480467996
388,458,67354624,11.079644922992296
389,459,67354624,12.351605057447067
390,460,67354624,11.158353753016566
391,461,67354624,12.33242944448737
392,462,67354624,11.022033881386184
393,463,67354624,12.354072198587753
394,464,67354624,11.160069477640219
395,465,67354624,12.353782162106445
396,466,67354624,11.095006766089332
397,467,67354624,12.354072198587753
398,468,67354624,11.126325424410853
399,469,67354624,12.352984631998032
400,470,67354624,11.126678323959867
401,471,67354624,12.350302786264399
402,472,67354624,11.062759068006415
403,473,67354624,12.355230214324223
404,474,67354624,10.959648482221368
405,475,67354624,12.327662326870922
406,476,67354624,11.074456673649042
407,477,67354624,12.353927178644781
408,478,67354624,10.953032846760435
409,479,67354624,12.336911005600774
410,480,67354624,11.113225183033885
411,481,67354624,12.352404674775352
412,482,67354624,11.08507337288137
413,483,67354624,12.337561825533392
414,484,67354624,11.105133747907523
415,485,67354624,12.35588523518964
416,486,67354624,10.898021744388956
417,487,67354624,12.353202129997017
418,488,67354624,11.063920265082201
419,489,67354624,12.354507278845656
420,490,67354624,10.976337065629263
421,491,67354624,12.355450057874934
422,492,67354624,12.328673225644076
423,493,67354624,12.351824772006653
424,494,67354624,12.302587439180805
425,495,67354624,12.353564643682361
426,496,67354624,12.306831457865654
427,497,67354624,12.349650621473899
428,498,67354624,12.305677999963095
429,499,67354624,12.331490175214142
430,500,67354624,12.322466036419305
431,501,67354624,12.351317401747293
432,502,67354624,12.333296589285656
433,503,67354624,12.349360792563683
434,504,67354624,12.338936004247161
435,505,67354624,12.336838696513356
436,506,67354624,12.306759500951767
437,507,67354624,12.331779165905328
438,508,67354624,12.297124879456284
439,509,67354624,12.355014911213255
440,510,67354624,12.318715883523243
441,511,67354624,12.350377517878396
442,512,67354624,12.322321757549213
443,513,67354624,12.350377517878396
444,514,67354624,12.33575416190944
445,515,67354624,12.352479431828623
446,516,67354624,12.325568849542494
447,517,67354624,12.355377531302727
448,518,67354624,12.306471681710532
449,519,67354624,12.352114716584735
450,520,67354624,10.908244398511139
451,521,67354624,12.35341963565508
452,522,67354624,10.788757652924746
453,523,67354624,12.354289734886155
454,524,67354624,10.971130722595232
455,525,67354624,12.347986554726608
456,526,67354624,10.94141780643451
457,527,67354624,12.351317401747293
458,528,67354624,10.994282386263102
459,529,67354624,12.294395418292877
460,530,67354624,10.934596929886366
461,531,67354624,12.35457979520136
462,532,67289088,11.037664058096725
463,533,67289088,12.303489455132155
464,534,67289088,10.947215938347256
465,535,67289088,12.35612339690944
466,536,67289088,11.035870098061324
467,537,67289088,12.355322518867416
468,538,67289088,11.036391390612364
469,539,67289088,12.322595980753855
470,540,67289088,11.047756211183948
471,541,67289088,12.32281262075293
472,542,67289088,10.97103503148366
473,543,67289088,12.291692445959386
474,544,67289088,11.016615029165202
475,545,67289088,12.322234931015425
476,546,67289088,10.947272930487536
477,547,67289088,12.353074716278394
478,548,67289088,11.031296420313009
479,549,67289088,12.348429733381145
480,550,67289088,10.925603571059764
481,551,67289088,12.333871370403513
482,552,67289088,11.065254973800036
483,553,67289088,12.353943346240065
484,554,67289088,10.959827428834265
485,555,67289088,12.302769614215459
486,556,67305472,11.013875209029793
487,557,67305472,12.3072795571495
488,558,67305472,10.87166230354864
489,559,67305472,12.353830459022207
490,560,67305472,11.048702925353611
491,561,67305472,12.32299665054127
492,562,67305472,10.927979913635387
493,563,67305472,12.313906264579266
494,564,67305472,11.038960919678981
495,565,67305472,12.327835895226677
496,566,67305472,10.95022348516463
497,567,67305472,12.246652641477368
498,568,67305472,11.024266319378642
499,569,67305472,12.335212666152161
500,570,67305472,10.937413182200213
501,571,67305472,12.131859891835147
502,572,67305472,11.046557701426137
503,573,67305472,12.354701251633239
504,574,67305472,10.936105191254168
505,575,67305472,12.353467664995321
506,576,67305472,11.0072466932291
507,577,67305472,12.355935084661565
508,578,67305472,10.907804296515167
509,579,67305472,12.35571733151421
510,580,67305472,11.017623490479124
511,581,67305472,12.353032340289012
512,582,67305472,10.926787707665143
513,583,67305472,12.353830459022207
514,584,67305472,10.870931828001275
515,585,67305472,12.354993811073543
516,586,67305472,10.8616689300028
517,587,67305472,12.354265839983231
518,588,67305472,10.99240295624236
519,589,67305472,12.317728363646879
520,590,67305472,10.973879887035293
521,591,67305472,12.35521153871924
522,592,67305472,11.046499684962374
523,593,67305472,12.353395108746925
524,594,67305472,10.952563147051835
525,595,67305472,12.35245195507083
526,596,67305472,10.958840443788812
527,597,67305472,12.352671860240056
528,598,67305472,10.971303977727944
529,599,67305472,12.354918968967628
530,600,67305472,11.001717632243626
531,601,67305472,12.352671860240056
532,602,67305472,10.996598357147011
533,603,67305472,12.323935311374708
534,604,67305472,11.06614401884084
535,605,67305472,12.353612780049051
536,606,67305472,10.99642588031241
537,607,67305472,12.353975582599528
538,608,67305472,11.007072082120146
539,609,67305472,12.277389532087076
540,610,67305472,10.877061383010151
541,611,67305472,12.356951367507715
542,612,67305472,11.04528147998021
543,613,67305472,12.352962056364204
544,614,67305472,10.944299507953078
545,615,67305472,12.35528184824395
546,616,67305472,11.058869149216545
547,617,67305472,12.354630948716297
548,618,67305472,10.939517998188705
549,619,67305472,12.352744407992843
550,620,67305472,11.073018563812994
551,621,67305472,12.336804404229365
552,622,67305472,10.905201001511859
553,623,67305472,12.355427005923147
554,624,67305472,10.949883221587445
555,625,67305472,12.352887238871467
556,626,67305472,10.9533616763107
557,627,67305472,12.206210515529916
558,628,67305472,11.05375465353156
559,629,67305472,12.353615047498817
560,630,67305472,10.943843945993512
561,631,67305472,12.32899209799671
