idx,og Index,data (B),bandwidth (GB/s)
0,5,16785408,12.271003851181234
1,7,16785408,10.229266509031518
2,9,16785408,11.234686460473739
3,11,16785408,12.018799996563072
4,13,16785408,12.140641409538688
5,15,16785408,11.72935306695736
6,17,16785408,11.90505127877782
7,19,16785408,11.96233719216527
8,21,16785408,11.891556739447696
9,23,16785408,12.224390215481957
10,25,16785408,11.507787192353284
11,27,16785408,11.562579346573434
12,29,16785408,11.679982520462957
13,31,16785408,11.870834877411944
14,37,16793600,12.162612365979218
15,39,16793600,12.241491290285664
16,41,16793600,11.729561307869554
17,43,16793600,10.933632299841532
18,45,16793600,11.134995643761828
19,46,16793600,11.305304343025941
20,47,16793600,11.119903008086853
21,48,16793600,10.906818970029889
22,49,16793600,10.334631193064789
23,51,16793600,10.175916545074676
24,53,16793600,12.217543512485559
25,55,16793600,12.208457433313148
26,57,16793600,11.985395083544347
27,59,16793600,11.672946742041473
28,61,16793600,10.472606814528048
29,63,16793600,10.983976903928138
30,69,16793600,10.463204393728407
31,71,16793600,10.208186560055825
32,72,16793600,11.050362135980466
33,73,16793600,9.67358783797017
34,74,16793600,11.657130322935329
35,77,16793600,12.062539370828128
36,79,16793600,12.075020204605787
37,81,16793600,9.570218893910736
38,83,16793600,8.744498759682495
39,84,16793600,10.572605132059982
40,85,16793600,9.090781141566007
41,87,16793600,9.843799091211764
42,88,16793600,10.965165150655451
43,89,16793600,9.235889826640078
44,91,16793600,10.084992436375778
45,93,16793600,9.099450465495064
46,95,16793600,10.951207472091493
47,100,16793600,10.837894943356872
48,102,16793600,11.144927324636093
49,103,16793600,12.128609365554766
50,105,16793600,11.796804095613007
51,106,16793600,11.268890973533512
52,107,16793600,10.792427512155747
53,108,16793600,11.05361334205673
54,109,16793600,10.260470890703893
55,110,16793600,10.69542965520843
56,111,16793600,11.75346666937286
57,113,16793600,11.356442131415708
58,114,16793600,11.219990953775396
59,115,16793600,11.2543987626166
60,116,16793600,11.096852975420354
61,117,16793600,12.23092632137062
62,119,16793600,12.269251984467637
63,120,16793600,11.276881774583234
64,121,16793600,11.739277535601742
65,123,16793600,11.739277535601742
66,124,16793600,11.20705245631421
67,125,16793600,10.761878945523499
68,126,16793600,10.954171933848114
69,127,16793600,9.825915548006481
70,132,16793600,11.386996925017206
71,135,16793600,11.842057015849019
72,137,16793600,11.988954535979143
73,139,16793600,11.90707805228065
74,140,16793600,11.278828220442742
75,141,16793600,11.67113767461255
76,143,16793600,10.740734345010019
77,144,16793600,11.53161863313349
78,147,16793600,10.498158683879373
79,149,16793600,10.511201825640333
80,151,16793600,11.551671125155714
81,152,16793600,10.868194920288945
82,155,16793600,11.951277139026397
83,156,16793600,12.069188555198773
84,157,16793600,11.297767235156442
85,158,16793600,10.836104690853293
86,159,16793600,12.168534668904211
87,164,16793600,11.753993156288997
88,167,16793600,12.002381379499123
89,169,16793600,12.013104997353249
90,171,16793600,11.157248264984647
91,173,16793600,12.209300634834777
92,174,16793600,11.072277439878686
93,175,16793600,12.32139096952742
94,176,16793600,11.14232445809752
95,178,16793600,11.446604754196132
96,179,16793600,11.731658978803013
97,180,16793600,11.341226143114637
98,181,16793600,11.501291991433751
99,182,16793600,11.133105901601525
100,183,16793600,12.08530873899314
101,184,16793600,11.326784226837848
102,185,16793600,11.459351904103261
103,187,16793600,9.527305280989584
104,188,16793600,11.258503241740451
105,189,16793600,11.118717682188045
106,190,16793600,11.164606410660411
107,191,16793600,11.665170918204323
108,196,16793600,10.873824629015946
109,198,16793600,11.900319517796694
110,200,16793600,11.27179540875159
111,203,16793600,10.302569262103997
112,205,16793600,9.324835614901879
113,207,16793600,9.145431287007504
114,209,16793600,8.908679352580231
115,211,16793600,8.957948274804437
116,213,16793600,8.799486501002109
117,215,16793600,9.887754765594456
118,216,16793600,10.769394542196844
119,217,16793600,9.79236359374426
120,219,16793600,9.367946957213446
121,220,16793600,11.602493552289499
122,223,16793600,10.927712960131183
123,228,16793600,11.448102946760349
124,229,16793600,10.356044530695483
125,231,16793600,10.879911269016327
126,232,16793600,12.0858653754811
127,233,16793600,10.765197212802645
128,234,16793600,11.05268942677205
129,235,16793600,10.89504462831793
130,236,16793600,11.137831460182332
131,237,16793600,10.890974815398963
132,238,16793600,11.126032448719588
133,239,16793600,11.169596477575807
134,240,16793600,11.028526171866279
135,243,16793600,12.244061736505074
136,244,16793600,11.153224676350204
137,246,16793600,12.238342180362801
138,247,16793600,11.266237447278401
139,248,16793600,11.176256843074801
140,249,16793600,10.4730182705326
141,250,16793600,11.116840819649884
142,252,16793600,11.385020687280052
143,253,16793600,11.06503316162818
144,254,16793600,11.239214106305928
145,255,16793600,9.93887628958719
146,260,16793600,11.288532596968816
147,261,16793600,9.95301335634462
148,263,16793600,12.150793828806764
149,265,16793600,12.252923764336094
150,267,16793600,11.910320821784902
151,269,16793600,11.684910423294118
152,271,16793600,11.903837048084311
153,273,16793600,11.328740296912619
154,274,16793600,10.740521395213786
155,275,16793600,12.027421512652227
156,277,16793600,11.951277139026397
157,279,16793600,10.220307212931182
158,281,16793600,12.098403266661096
159,282,16793600,11.135231906640586
160,283,16793600,11.727472576585837
161,284,16793600,12.080301316966919
162,286,16793600,10.908632666397311
163,287,16793600,11.342942035064398
164,292,16793600,10.753499260735346
165,293,16793600,10.861222172063345
166,295,16793600,11.964900981210796
167,297,16793600,11.414488194756442
168,299,16793600,11.914106285951037
169,301,16793600,11.819121054216952
170,303,16793600,9.920276739427335
171,304,16793600,10.591382014655734
172,307,16793600,10.371797722275748
173,309,16793600,10.981678456852366
174,310,16793600,12.12299713845985
175,311,16793600,11.415977991395327
176,312,16793600,11.195807972053148
177,313,16793600,10.55049992618118
178,314,16793600,10.811548559134025
179,315,16793600,11.348575954285652
180,317,16793600,11.883889777375208
181,319,16793600,11.961901071567977
182,324,16793600,11.891698980039823
183,325,16793600,12.098403266661096
184,327,16793600,12.213278565963748
185,329,16793600,11.935775271731211
186,330,16793600,10.972501448856825
187,331,16793600,11.923572016355719
188,332,16793600,10.998940293600239
189,333,16793600,11.95073283064197
190,334,16793600,12.02604344201954
191,335,16793600,11.961083175453341
192,336,16793600,12.226376082501247
193,337,16793600,12.028524196575148
194,339,16793600,11.571291159196205
195,340,16793600,11.0352513513478
196,341,16793600,10.422061984012174
197,343,16793600,11.994983043486956
198,345,16793600,12.02604344201954
199,347,16793600,9.601736289584379
200,349,16793600,11.73270809564963
201,350,16793600,11.215914502160889
202,351,16793600,11.93387534722691
203,356,16793600,11.271076724209097
204,357,16793600,12.164021915172867
205,359,16793600,11.983752972104321
206,360,16793600,12.245767037582581
207,362,16793600,12.003762612327987
208,364,16793600,11.682301177370828
209,366,16793600,11.084899121979038
210,367,16793600,12.001017616775814
211,368,16793600,11.282215274148104
212,369,16793600,10.68345456465508
213,371,16793600,12.001017616775814
214,373,16793600,12.156132644995411
215,375,16793600,12.118238260312365
216,377,16793600,10.836775966227997
217,378,16793600,11.808483409789588
218,381,16793600,11.073671938776183
219,383,16793600,11.505578564063565
220,388,16793600,11.556758772892652
221,389,16793600,11.749790802004942
222,391,16793600,12.180396593991615
223,393,16793600,12.208457433313148
224,395,16793600,11.717784048251012
225,396,16793600,12.081969996517916
226,397,16793600,10.715951604144825
227,398,16793600,10.937962028202039
228,399,16793600,10.478455136680521
229,401,16793600,11.676331122328369
230,403,16793600,12.202496216147875
231,404,16793600,11.324332452665805
232,405,16793600,9.807008610097594
233,406,16793600,10.907499035487563
234,407,16793600,11.25560565166308
235,409,16793600,12.063917152520164
236,410,16793600,11.30847125274234
237,411,16793600,12.150231195597046
238,413,16793600,12.135892862820821
239,414,16793600,11.22311024024604
240,415,16793600,11.2931480282248
241,421,16793600,11.809546312470289
242,423,16793600,12.127768513991606
243,425,16793600,12.15106637300046
244,427,16793600,12.266375277924674
245,429,16793600,12.019157823016299
246,431,16793600,11.939857065259122
247,433,16793600,12.240340294521527
248,435,16793600,11.712553668123855
249,436,16793600,11.242095736149214
250,437,16793600,12.102588346531142
251,438,16793600,10.940698360745449
252,439,16793600,10.580918483907409
253,440,16793600,11.83137806359253
254,441,16793600,10.91907313755603
255,443,16793600,11.158434406590239
256,445,16793600,10.245653851668147
257,447,16793600,11.008168814296146
258,453,16793600,12.170227814930444
259,455,16793600,12.264941909210684
260,457,16793600,12.270677394936124
261,459,16793600,11.469620217718985
262,461,16793600,11.785941873163008
263,463,16793600,11.759524117962165
264,465,16793600,10.601652089100442
265,467,16793600,11.288532596968816
266,468,16793600,11.028989714174632
267,469,16793600,11.284406197231176
268,471,16793600,11.077879466317668
269,473,16793600,11.630271282504452
270,475,16793600,12.232351750038605
271,477,16793600,12.288212795880124
272,479,16793600,12.173333140032184
273,485,16793600,12.150785037262137
274,487,16793600,12.217259090049325
275,489,16793600,12.211857578745597
276,490,16793600,11.282465405728974
277,491,16793600,9.72846655115503
278,492,16793600,11.733503254493268
279,493,16793600,11.178161263826597
280,494,16793600,11.975275892854595
281,495,16793600,12.21469988391613
282,497,16793600,11.614313180353266
283,499,16793600,11.764532808584656
284,501,16793600,10.534199641449808
285,503,16793600,11.930628216458606
286,1035,16793600,11.13311328215895
287,1037,16793600,11.271076724209097
288,1039,16793600,10.803313764163846
289,1044,16793600,11.048493740090395
290,1047,16793600,11.146584327505254
291,1049,16793600,11.202499643117777
292,1051,16793600,12.088927792958684
293,1053,16793600,12.127479498193184
294,1055,16793600,12.173333140032184
295,1057,16793600,11.870978322260134
296,1059,16793600,11.213750091814182
297,1061,16793600,12.054495599867924
298,1063,16793600,12.158957869807576
299,1065,16793600,11.846868836222344
300,1067,16793600,11.032931397629907
301,1069,16793600,12.002115464330126
302,1071,16793600,12.138980688773813
303,1076,16793600,10.89821214186054
304,1077,16793600,11.94855609281305
305,1079,16793600,12.130843443814236
306,1081,16793600,12.144317908992823
307,1083,16793600,12.001292059834947
308,1084,16793600,11.957267805318455
309,1085,16793600,11.700280635065727
310,1087,16793600,11.276162441306358
311,1089,16793600,12.06891099810561
312,1091,16793600,11.927365909818898
313,1092,16793600,12.128600606083367
314,1093,16793600,10.090997803169781
315,1094,16793600,11.300435636315678
316,1097,16793600,10.199258935799742
317,1098,16793600,11.737431444401034
318,1099,16793600,9.733518727066075
319,1101,16793600,11.41523304446772
320,1103,16793600,11.783295584351434
321,1109,16793600,12.21413131703968
322,1110,16793600,12.174180321926805
323,1111,16793600,12.132526116545536
324,1113,16793600,10.542446063940448
325,1115,16793600,11.517201460498775
326,1117,16793600,10.961035638247184
327,1119,16793600,11.500787898751758
328,1121,16793600,11.58354261781607
329,1123,16793600,10.853584922244497
330,1125,16793600,12.161766793255179
331,1127,16793600,12.113762727904877
332,1129,16793600,12.093663673784484
333,1131,16793600,9.95867945026116
334,1133,16793600,12.123557252217003
335,1135,16793600,9.759771627295002
336,1141,16793600,11.560577450623374
337,1142,16793600,12.12832030967891
338,1143,16793600,12.002115464330126
339,1145,16793600,12.188883566316829
340,1147,16793600,11.7227490550167
341,1149,16793600,10.682367249628838
342,1151,16793600,11.831369728190456
343,1152,16793600,11.218304562112303
344,1154,16793600,11.917615057684078
345,1157,16793600,11.78276646918334
346,1159,16793600,11.063633548761125
347,1160,16793600,11.837774778045247
348,1162,16793600,11.617912793706227
349,1163,16793600,12.050067018165224
350,1165,16793600,12.171356840735083
351,1166,16793600,11.256571349285773
352,1167,16793600,11.73401975560181
353,1172,16793600,11.014406825238376
354,1173,16793600,11.734027954398723
355,1175,16793600,11.419207218601361
356,1176,16793600,10.784221808098698
357,1177,16793600,10.664783530347156
358,1178,16793600,11.484680231504498
359,1181,16793600,11.700011634801013
360,1183,16793600,12.049790339847483
361,1185,16793600,12.039018417398424
362,1187,16793600,11.521239060084891
363,1189,16793600,10.04829807908631
364,1191,16793600,11.173170976740968
365,1193,16793600,11.447104108145469
366,1195,16793600,11.408780908009502
367,1196,16793600,11.196532019284042
368,1197,16793600,11.44161360980811
369,1199,16793600,10.056192424322266
370,1205,16793600,11.438371699402186
371,1206,16793600,11.998273876376398
372,1207,16793600,11.007707020480828
373,1209,16793600,10.76475557897355
374,1210,16793600,10.987196346673471
375,1211,16793600,9.852854896622938
376,1213,16793600,10.166257439935686
377,1215,16793600,11.197726528655433
378,1217,16793600,11.339013102901598
379,1219,16793600,12.269243020669863
380,1221,16793600,12.023563710511167
381,1223,16793600,12.019157823016299
382,1224,16793600,11.316769960315561
383,1225,16793600,11.886043015562494
384,1227,16793600,10.01053891530241
385,1228,16793600,11.915458820657927
386,1229,16793600,10.400581168145495
387,1230,16793600,12.098403266661096
388,1231,16793600,11.699237309153126
389,1237,16793600,12.147972396232694
390,1238,16793600,12.248062354726747
391,1239,16793600,11.863204681535231
392,1241,16793600,9.964919609416166
393,1242,16793600,10.86751974694914
394,1244,16793600,11.29459872080276
395,1245,16793600,11.050354864732908
396,1246,16793600,10.983064592605189
397,1247,16793600,10.281382564823414
398,1248,16793600,10.731948597381301
399,1249,16793600,8.988326244300541
400,1250,16793600,11.314574076382268
401,1252,16793600,11.194621334280795
402,1254,16793600,10.763430894871707
403,1255,16793600,8.528219868168476
404,1257,16793600,8.991560239373735
405,1259,16793600,10.438847310972426
406,1261,16793600,12.066413558620571
407,1263,16793600,11.942574150402931
408,1268,16793600,11.592498175901747
409,1269,16793600,10.952114498430252
410,1271,16793600,10.226288044262601
411,1272,16793600,12.054772494307691
412,1273,16793600,10.42185501522605
413,1274,16793600,12.014205057618621
414,1275,16793600,10.575161694761348
415,1276,16793600,11.625376238089832
416,1277,16793600,9.07238905993138
417,1278,16793600,11.286340071426748
418,1280,16793600,11.244512026504308
419,1283,16793600,9.86582070262014
420,1285,16793600,12.208164558986452
421,1287,16793600,12.024941212862425
422,1289,16793600,11.940672060977517
423,1291,16793600,12.034040650429807
424,1293,16793600,11.67295485571456
425,1294,16793600,12.140665619858131
426,1295,16793600,10.577506296959509
427,1301,16793600,11.432640509981162
428,1303,16793600,12.194831487435989
429,1304,16793600,12.161203143420744
430,1305,16793600,11.921684437692559
431,1307,16793600,10.585827361302755
432,1309,16793600,10.711802654222632
433,1311,16793600,10.569204955825285
434,1312,16793600,11.447353801458593
435,1313,16793600,11.158434406590239
436,1314,16793600,11.782237401531713
437,1315,16793600,10.174535549319257
438,1316,16793600,10.849097437474402
439,1317,16793600,10.841246263024944
440,1318,16793600,11.947196034295828
441,1319,16793600,11.694797104991752
442,1321,16793600,12.100913967182496
443,1322,16793600,11.983205701612926
444,1323,16793600,11.380083092713226
445,1324,16793600,12.125798224915304
446,1325,16793600,10.169415574703143
447,1326,16793600,11.840186807825399
448,1327,16793600,10.657196761769743
449,1332,16793600,10.417717365074816
450,1333,16793600,9.718023619167543
451,1335,16793600,9.955090175323782
452,1336,16793600,11.487201937152003
453,1337,16793600,9.730450708942273
454,1339,16793600,11.765859837625305
455,1343,16793600,12.027421512652227
456,1345,16793600,11.997176731466585
457,1346,16793600,12.080579398215422
458,1347,16793600,11.199877287929867
459,1348,16793600,11.733757400149942
460,1349,16793600,8.807608898026187
461,1351,16793600,11.04175241531759
462,1353,16793600,11.158671665176062
463,1355,16793600,12.056988107853526
464,1357,16793600,12.256643917548496
465,1359,16793600,11.739802752075521
466,1364,16793600,11.015331576330576
467,1367,16793600,10.899343843093478
468,1369,16793600,10.730851389440014
469,1370,16793600,11.921955264271334
470,1371,16793600,10.034081077593006
471,1372,16793600,11.862132098448011
472,1373,16793600,10.167242222728087
473,1375,16793600,11.207762998952209
474,1377,16793600,11.589938032313743
475,1378,16793600,11.967083678943302
476,1379,16793600,11.0540862718459
477,1381,16793600,10.04445167495251
478,1383,16793600,10.241049083076803
479,1385,16793600,11.41002113696632
480,1386,16793600,11.659979295649379
481,1387,16793600,10.980307029616936
482,1388,16793600,11.89951845269981
483,1389,16793600,9.944337857362799
484,1390,16793600,11.611735364501982
485,1391,16793600,11.766651252084472
486,1396,16793600,11.416971405223759
487,1398,16793600,11.681261055345066
488,1400,16793600,11.940128718136858
489,1401,16793600,10.605943865596743
490,1402,16793600,11.66024645823902
491,1403,16793600,10.757694362485411
492,1404,16793600,10.78466504064414
493,1405,16793600,10.58561383714004
494,1406,16793600,11.779857184944094
495,1407,16793600,11.357916813485362
496,1409,16793600,11.4221896656444
497,1411,16793600,11.718037513405868
498,1412,16793600,12.036516078814754
499,1414,16793600,11.718299166357898
500,1417,16793600,11.266471753986027
501,1418,16793600,12.098124364246216
502,1419,16793600,10.460291180980926
503,1420,16793600,12.095893607765065
504,1422,16793600,12.004860962184573
505,1423,16793600,10.427446059313798
506,1429,16793600,11.641098478940645
507,1431,16793600,11.300686576464484
508,1432,16793600,11.036875899552442
509,1433,16793600,11.506587633789364
510,1434,16793600,11.933069758320093
511,1435,16793600,8.959324636275513
512,1436,16793600,11.210404015388137
513,1438,16793600,11.4949940073199
514,1439,16793600,9.149900892782227
515,1440,16793600,11.476392333308503
516,1443,16793600,10.804425841168454
517,1445,16793600,11.985933999424741
518,1446,16793600,11.275435629318443
519,1447,16793600,11.581497575579107
520,1449,16793600,11.860791642300402
521,1451,16793600,12.073631205551386
522,1452,16793600,11.415729664949803
523,1453,16793600,11.916262033447786
524,1455,16793600,9.690562815027251
525,1461,16793600,11.593266439545344
526,1463,16793600,12.27986533798586
527,1465,16793600,12.246919054206707
528,1466,16793600,11.360375468202164
529,1467,16793600,10.463413008112859
530,1468,16793600,11.271802974339492
531,1469,16793600,9.949994075127385
532,1471,16793600,11.65661247746744
533,1473,16793600,11.783031020827428
534,1474,16793600,10.954629246699639
535,1475,16793600,11.527819059589275
536,1477,16793600,11.535175085516464
537,1479,16793600,11.4486024314373
538,1481,16793600,12.069743707685895
539,1483,16793600,12.260939210021588
540,1484,16793600,11.378109253860377
541,1485,16793600,12.080310006812152
542,1487,16793600,11.404566145546484
543,1492,16793600,11.084196756108861
544,1493,16793600,12.18577914581415
545,1495,16793600,10.836775966227997
546,1496,16793600,11.179835607100037
547,1497,16793600,10.70087493874919
548,1498,16793600,10.994331833257172
549,1499,16793600,10.714201408050835
550,1501,16793600,11.952638126934147
551,1503,16793600,12.307800549371624
552,1505,16793600,12.2672354599775
553,1507,16793600,12.038181312489785
554,1508,16793600,11.274943570228713
