idx,og Index,data (B),bandwidth (GB/s)
0,1,33562624,17.484485555589128
1,7,33562624,24.445680714550527
2,9,33562624,18.3066395106684
3,11,33562624,16.592973454801278
4,13,33562624,17.389978642464914
5,15,33562624,15.832053722883359
6,17,33562624,16.866208058261257
7,19,33562624,24.795907074333883
8,21,33562624,18.84033447399384
9,23,33562624,16.517714060170764
10,25,33562624,18.299921866097137
11,27,33562624,16.452677983616258
12,29,33562624,24.80409841638657
13,31,33562624,18.26360439641765
14,33,33562624,16.866208058261257
15,39,33562624,16.577499927145706
16,41,33562624,15.643847824668363
17,42,33562624,21.942307227123695
18,43,33562624,24.780656650826796
19,45,33562624,15.111029468706047
20,46,33562624,21.953775086899018
21,47,33562624,17.666203289678343
22,49,33562624,17.719618984063093
23,50,33562624,21.71874227511276
24,51,33562624,15.520008656491282
25,53,33562624,17.98796251335861
26,54,33562624,21.922571559581492
27,55,33562624,16.23342576376021
28,57,33562624,17.924931598446697
29,58,33562624,22.17705633827014
30,59,33562624,20.56110016565217
31,61,33562624,15.067186045895658
32,63,33562624,17.252113552799113
33,65,33562624,16.324900433675307
34,71,33570816,18.067962304160858
35,73,33570816,17.392204627239767
36,75,33570816,18.84154850528471
37,77,33570816,17.398550311528577
38,79,33570816,17.034131876596117
39,81,33570816,17.168207523143533
40,83,33570816,17.888655021117373
41,85,33570816,19.742521900317097
42,87,33570816,19.617016427756266
43,89,33570816,18.570075855007577
44,91,33570816,17.318131028569837
45,93,33570816,17.448331170319534
46,95,33570816,16.43504569585575
47,97,33570816,17.927162060916693
48,103,33570816,18.860189114165696
49,105,33570816,16.94224233731654
50,107,33570816,17.37492171900409
51,109,33570816,17.65415112259161
52,111,33570816,18.034107647629515
53,113,33570816,17.725441330056906
54,115,33570816,19.640877306298968
55,117,33570816,16.264827789359853
56,119,33570816,17.219211597782945
57,121,33570816,17.08016032675888
58,123,33570816,18.425913108865025
59,125,33570816,18.910504284755866
60,127,33570816,17.37722412192024
61,129,33570816,16.033899146981
62,135,33570816,16.879010553021782
63,137,33570816,17.77650127561962
64,139,33570816,17.80697643086213
65,141,33570816,17.314424261679218
66,143,33570816,15.91278281593951
67,145,33570816,17.33588295955627
68,147,33570816,17.586683688891426
69,149,33570816,19.50177062710872
70,151,33570816,17.193530841586746
71,153,33570816,17.363131473518376
72,155,33570816,19.84259653303827
73,157,33570816,18.084459970856553
74,159,33570816,17.005966887548055
75,161,33570816,19.387535105485377
76,167,33570816,16.294139688394893
77,169,33570816,14.881452628527278
78,171,33570816,23.585843498348257
79,173,33570816,20.37004747434541
80,175,33570816,19.180879236531574
81,177,33570816,15.885554859432583
82,179,33570816,17.296145892046233
83,181,33570816,18.56744653208683
84,183,33570816,19.021596381394986
85,185,33570816,16.091941857589056
86,187,33570816,16.4794424320847
87,189,33570816,16.971843703078314
88,191,33570816,18.55923469480835
89,193,33570816,18.47687337292436
90,199,33570816,17.205656151500396
91,201,33570816,16.300207862656244
92,203,33570816,18.81587624532347
93,205,33570816,16.26936804952126
94,207,33570816,16.20603417521884
95,209,33570816,16.773758624635192
96,211,33570816,17.38816887401783
97,213,33570816,17.60704054713191
98,215,33570816,15.966790643697623
99,217,33570816,16.45230637889961
100,219,33570816,22.913074399817628
101,221,33570816,17.5496055747526
102,223,33570816,16.426810721940047
103,225,33570816,17.649992902320154
104,231,33570816,17.732632003743994
105,233,33570816,18.481745797115334
106,235,33570816,17.359970958824206
107,237,33570816,19.169313398950138
108,239,33570816,15.602054569148372
109,241,33570816,16.70617894634695
110,243,33570816,21.34655935782564
111,245,33570816,17.25376135189725
112,247,33570816,17.18199419910668
113,249,33570816,18.274734935686148
114,251,33570816,16.608058843638208
115,253,33570816,24.81426049831323
116,255,33570816,19.16790148269278
117,257,33570816,17.367443121324964
118,263,33570816,18.192024424515772
119,265,33570816,17.37607284419264
120,267,33570816,17.556066658090185
121,269,33570816,18.173755720777343
122,270,33570816,22.079773327729665
123,271,33570816,15.701061304208736
124,273,33570816,20.27242775292515
125,275,33570816,17.373195317165667
126,277,33570816,17.634565218990026
127,279,33570816,16.57552047202301
128,281,33570816,16.597819444636716
129,283,33570816,16.97542239052838
130,285,33570816,17.338748138725208
131,287,33570816,17.360554489975648
132,289,33570816,20.451441343804316
133,295,33570816,16.824322658308667
134,297,33570816,17.47156892644841
135,299,33570816,17.05711938321492
136,301,33570816,16.014318561274628
137,303,33570816,17.224583197794157
138,305,33570816,20.759413704590273
139,307,33570816,18.8141890396142
140,309,33570816,16.89423219669501
141,311,33570816,20.396185513896043
142,313,33570816,17.758737779592813
143,315,33570816,16.078862581032958
144,317,33570816,19.421991964107505
145,319,33570816,15.965575688400628
146,321,33570816,17.55930816856735
147,327,33570816,17.359970958824206
148,329,33570816,19.638671271726615
149,331,33570816,21.849371219408695
150,333,33570816,16.847567098811062
151,335,33570816,22.438195202874585
152,337,33570816,17.614726960003946
153,338,33570816,21.753788352512966
154,339,33570816,24.800786631984334
155,341,33570816,19.38859883382463
156,343,33570816,16.44018869763276
157,345,33570816,17.62686148679514
158,347,33570816,17.851812816300964
159,349,33570816,19.803267548206247
160,350,33570816,22.394607813707008
161,351,33570816,18.465155497911788
162,353,33570816,17.93299409085616
163,359,33570816,17.390186516483755
164,361,33570816,18.70216481905803
165,362,33570816,21.784957777663855
166,363,33570816,17.431796443937653
167,365,33570816,16.2313665347044
168,367,33570816,16.669016591648813
169,369,33570816,17.568414673587103
170,371,33570816,18.827008838440488
171,373,33570816,17.82634156288133
172,375,33570816,19.083880055868875
173,377,33570816,19.23327499133464
174,379,33570816,21.06157018752937
175,381,33570816,17.618868578086374
176,383,33570816,17.107185607687803
177,385,33570816,16.82433108997666
178,391,33570816,17.172993885498766
179,393,33570816,16.347196867179942
180,395,33570816,16.64415735857644
181,396,33570816,21.930672798656886
182,397,33570816,22.564656554379365
183,398,33570816,21.727206888852216
184,399,33570816,17.78765332669249
185,401,33570816,17.186489096034148
186,403,33570816,17.816048595182725
187,405,33570816,16.45927568199903
188,407,33570816,17.539922861743626
189,409,33570816,24.916827913294217
190,411,33570816,18.04031000420232
191,413,33570816,15.650233931977914
192,415,33570816,16.51862396367467
193,416,33570816,21.518195156376493
194,417,33570816,17.84483819903873
195,423,33570816,18.913231672723974
196,425,33570816,18.44275714989691
197,427,33570816,17.37636064932282
198,429,33570816,16.162349429493045
199,431,33570816,14.822160909918155
200,433,33570816,18.15928502731129
201,435,33570816,21.540728440064395
202,437,33570816,17.238177347110533
203,439,33570816,17.774383590147607
204,440,33570816,22.572879986067957
205,441,33570816,16.159610907977658
206,443,33570816,16.78771631099276
207,444,33570816,21.937107312779474
208,445,33570816,17.194376238840828
209,447,33570816,19.122840615538852
210,449,33570816,17.678843725347907
211,455,33570816,16.895864715578092
212,457,33570816,15.944465025618813
213,459,33570816,18.455735075104826
214,461,33570816,16.43838546366921
215,463,33570816,19.837707036630615
216,465,33570816,17.13036210164074
217,467,33570816,17.743119489103602
218,469,33570816,20.158681052621464
219,471,33570816,18.798007246884012
220,473,33570816,17.053783389195775
221,475,33570816,14.932926235272609
222,477,33570816,16.366834393795866
223,479,33570816,18.45346261986626
224,481,33570816,18.605314772438202
225,487,33570816,17.103272315992726
226,489,33570816,24.909118430073637
227,491,33570816,16.20754421843589
228,492,33570816,22.116079916360164
229,493,33570816,17.777094317981437
230,495,33570816,17.810301818123943
231,503,33570816,17.726938906120793
232,505,33570816,18.159913708697612
233,507,33570816,17.709283617016112
234,509,33570816,19.522831038278824
235,511,33570816,17.57371199914568
236,513,33570816,17.908809725255555
237,515,33570816,23.925237055065192
238,517,33570816,17.529664986324374
239,519,33570816,17.445710704452836
240,521,33570816,18.061109302832303
241,523,33570816,18.307902310055358
242,525,33570816,24.927484835591752
243,527,33570816,18.02511212399601
244,529,33570816,19.711733040218707
245,535,33570816,17.847570460835716
246,537,33570816,17.516786381799264
247,538,33570816,21.67558182704507
248,539,33570816,17.110525087181536
249,541,33570816,17.745229730915486
250,543,33570816,19.347132838438366
251,545,33570816,16.77161334802125
252,546,33570816,21.359163061825544
253,547,33570816,17.91094045357274
254,549,33570816,20.427162537117265
255,551,33570816,20.22395573850585
256,553,33570816,18.774458632601668
257,555,33570816,18.132596452319778
258,557,33570816,16.270889918981954
259,559,33570816,17.508308551795068
260,561,33570816,22.028296847871307
261,567,33579008,17.308642102582766
262,569,33579008,17.930627035143573
263,571,33579008,20.603841705297455
264,573,33579008,15.076273922169467
265,575,33579008,17.21438073818963
266,577,33579008,17.47641447077376
267,579,33579008,16.57171847579115
268,581,33579008,16.772220227056017
269,583,33579008,15.211990193004995
270,585,33579008,24.758240948007632
271,587,33579008,16.13124437635622
272,589,33579008,16.951030368380295
273,591,33579008,15.427587436298445
274,593,33579008,21.375690449469317
275,599,33579008,17.9364503154195
276,601,33579008,17.016728373977724
277,603,33579008,17.148551803383338
278,605,33579008,16.71743513712386
279,607,33579008,23.533399772648586
280,609,33579008,16.16653466976783
281,611,33579008,15.87236689601449
282,613,33579008,18.552276367469684
283,615,33579008,19.99378852401231
284,617,33579008,16.088711887599924
285,619,33579008,16.40615771874383
286,621,33579008,16.840860203189628
287,623,33579008,16.582709323382755
288,625,33579008,16.39922699632789
289,631,33579008,16.666199125768006
290,633,33579008,17.10214837443301
291,635,33579008,17.003501568996608
292,637,33579008,17.461591943093705
293,639,33579008,24.293428136932743
294,641,33579008,24.85264712935304
295,643,33579008,17.712110103163695
296,645,33579008,21.703278080334233
297,647,33579008,16.856550931329362
298,649,33579008,16.899443328574037
299,651,33579008,18.203092448746048
300,653,33579008,18.14266564586394
301,655,33579008,16.01895998671885
302,657,33579008,16.409228337883714
303,663,33579008,15.252903610884118
304,665,33579008,17.561232355879106
305,667,33579008,16.45916848843707
306,669,33579008,17.25399890450827
307,671,33579008,14.296178916131998
308,673,33579008,16.574589584157028
309,675,33579008,17.178309262697258
310,677,33579008,18.454080516685554
311,679,33579008,17.058222173905534
312,681,33579008,16.14539943494241
313,683,33579008,20.40314599313637
314,685,33579008,24.79570116383738
315,687,33579008,16.25468425141773
316,689,33579008,20.053011265371644
317,695,33579008,15.862289716888972
318,697,33579008,16.160815938365698
319,699,33579008,15.99576228394603
320,701,33579008,21.327466307260508
321,703,33579008,17.172115914695326
322,705,33579008,16.882586138675588
323,707,33579008,19.367927080311212
324,709,33579008,16.31458639018181
325,711,33579008,21.072619219449134
326,713,33579008,18.297362170421152
327,715,33579008,21.395302961470115
328,717,33579008,16.89971549459802
329,719,33579008,16.995506534707186
330,721,33579008,15.788066915546862
331,727,33579008,15.66971483823038
332,729,33579008,22.647111430047495
333,731,33579008,18.706395068674777
334,733,33579008,16.544537308344005
335,735,33579008,22.67451587330527
336,737,33579008,24.810357706769555
337,739,33579008,24.787501061140127
338,741,33579008,24.789257769388126
339,743,33579008,24.841486952655522
340,745,33579008,19.875256882558503
341,747,33579008,18.921258081075308
342,749,33579008,19.21366304602203
343,751,33579008,16.248895134429947
344,753,33579008,15.92753752426199
345,759,33579008,16.777315280448754
346,761,33579008,16.246135743909214
347,763,33579008,15.643784510052756
348,765,33579008,16.8470788921138
349,766,33579008,21.924566294717184
350,767,33579008,16.75481315935356
351,769,33579008,16.832485752368672
352,770,33579008,22.38048481374594
353,771,33579008,24.336229657304166
354,773,33579008,23.79488458644006
355,775,33579008,17.789882460395415
356,777,33579008,19.281802275871136
357,779,33579008,16.612382774854503
358,781,33579008,16.67334911340149
359,783,33579008,15.844558309272454
360,785,33579008,16.471828319039012
361,790,33579008,22.227832080250273
362,791,33579008,17.162566712632493
363,793,33579008,16.693242417598917
364,794,33579008,22.03876258996583
365,795,33579008,15.102528871284242
366,797,33579008,16.638451815195744
367,798,33579008,21.7925223091151
368,799,33579008,17.16312813640132
369,801,33579008,19.72766325446735
370,803,33579008,15.756307753524275
371,805,33579008,18.18479612984913
372,807,33579008,16.555239089267324
373,809,33579008,24.80566572823918
374,811,33579008,18.890261664293593
375,813,33579008,16.45296679077803
376,815,33579008,24.870336396420285
377,817,33579008,17.037173389564092
378,823,33579008,16.90924683143682
379,825,33579008,18.09105597671691
380,827,33579008,17.996116625569496
381,829,33579008,19.474671739433024
382,831,33579008,17.67213898142739
383,833,33579008,19.985779798767368
384,835,33579008,17.898208527218554
385,837,33579008,18.20278655057304
386,839,33579008,16.816570269849322
387,841,33579008,17.25371520766215
388,843,33579008,15.943025029104714
389,845,33579008,17.363919831961105
390,846,33579008,22.384781631937454
391,847,33579008,16.974062986856087
392,849,33579008,17.685243919266952
393,855,33579008,17.617546293332943
394,857,33579008,19.262677717506033
395,859,33579008,20.096793036417086
396,861,33579008,19.061490734354557
397,863,33579008,19.56362619436029
398,865,33579008,17.57004443918874
399,867,33579008,18.070805423123886
400,869,33579008,18.62372692971748
401,871,33579008,15.534711019468928
402,873,33579008,16.72250528258532
403,875,33579008,20.15545488868254
404,877,33579008,17.101033527775485
405,879,33579008,17.399044734172257
406,881,33579008,24.852665523420146
407,887,33579008,17.079045050745286
408,889,33579008,18.98905354471862
409,890,33579008,22.050340352264264
410,891,33579008,17.341537152164864
411,893,33579008,17.082390119799015
412,894,33579008,22.026749056226283
413,895,33579008,16.68925996004996
414,897,33579008,20.388861936367626
415,898,33579008,22.386706783479216
416,899,33579008,19.319065109128903
417,901,33579008,17.720185882747796
418,903,33579008,20.531679825958605
419,905,33579008,17.37685921844258
420,906,33579008,21.895288135637426
421,907,33579008,18.736121441329043
422,909,33579008,16.6730841896458
423,911,33579008,16.811720688890368
424,913,33579008,20.504398683722826
425,919,33579008,16.764717365375294
426,921,33579008,16.935171880933854
427,923,33579008,15.60098942372201
428,925,33579008,17.559469163343447
429,926,33579008,22.07724766564671
430,927,33579008,17.674222558616673
431,929,33579008,18.33029347896103
432,931,33579008,16.077372847110105
433,933,33579008,16.723837850679306
434,935,33579008,17.09601851597288
435,937,33579008,16.331598637404454
436,938,33579008,21.9575979587593
437,939,33579008,17.211839512026348
438,941,33579008,20.83747530208406
439,942,33579008,22.379052907563384
440,943,33579008,18.69439769469777
441,945,33579008,16.691906423143877
442,951,33579008,17.15331728291192
443,953,33579008,16.818187418642495
444,954,33579008,22.19681448454341
445,955,33579008,18.10697667646816
446,957,33579008,16.99716688643502
447,959,33579008,16.819265690639586
448,961,33579008,24.803320404399138
449,963,33579008,16.48579445171331
450,965,33579008,17.794709335662223
451,967,33579008,17.139579919863206
452,969,33579008,17.302942875413585
453,971,33579008,16.599497847884194
454,973,33579008,16.544806314606962
455,975,33579008,17.709120941364095
456,976,33579008,22.178034511045094
457,977,33579008,21.8415110244999
458,983,33579008,17.470886025895968
459,984,33579008,22.09537746836609
460,985,33579008,16.105997670844694
461,987,33579008,16.59267341165425
462,988,33579008,21.640183618322393
463,989,33579008,15.323958882385826
464,991,33579008,17.320641470698984
465,993,33579008,18.116667664785346
466,995,33579008,24.788672172306292
467,997,33579008,17.87107960901734
468,999,33579008,16.91906171508325
469,1001,33579008,17.13175360769778
470,1003,33579008,17.80163368478196
471,1005,33579008,16.915226420369397
472,1007,33579008,17.013141748281157
473,1009,33579008,16.890721649484536
474,1015,33579008,18.406798986116105
475,1017,33579008,17.579758074860152
476,1019,33579008,15.786159388505663
477,1021,33579008,16.600540052581465
478,1023,33579008,17.76006490707425
479,1024,33579008,21.917697203093894
480,1025,33579008,16.964184204756375
481,1027,33579008,17.419253564490234
482,1029,33579008,17.507020480899424
483,1031,33579008,16.692960264311356
484,1033,33579008,16.24762931472462
485,1035,33579008,22.987936795682685
486,1037,33579008,24.143039150554056
487,1039,33579008,18.1948860997909
488,1041,33579008,16.307471451368983
489,1047,33579008,14.694353665645004
490,1049,33579008,17.27643158603665
491,1051,33579008,16.395375566750875
492,1053,33579008,16.10178083860245
493,1055,33579008,16.8022905431033
494,1057,33579008,16.472587881743145
495,1059,33579008,16.598701921413355
496,1061,33579008,16.29101522512636
497,1063,33579008,17.96652712501391
498,1064,33579008,22.11540128323171
499,1065,33579008,15.430756455673865
500,1067,33579008,17.32063253641283
501,1069,33579008,17.200818574154468
502,1071,33579008,19.08990428046047
503,1072,33579008,21.886611229375593
504,1073,33579008,15.441883137636863
505,1078,33579008,22.323811195343108
506,1079,33579008,16.657460312105936
507,1081,33579008,15.394091208329742
508,1083,33579008,15.622582975906177
509,1085,33579008,17.220012933339966
510,1087,33579008,17.592422146778993
511,1089,33579008,15.430082841498315
512,1091,33579008,16.8760613185026
513,1093,33579008,16.56019498011041
514,1095,33579008,16.190722509433616
515,1097,33579008,17.250302711172186
516,1099,33579008,16.232549010887443
517,1101,33579008,19.612978591550284
518,1103,33579008,15.235180422895368
519,1105,33579008,17.227654948300117
520,1111,33579008,16.028984773924016
521,1113,33579008,20.222263575303057
522,1115,33579008,21.89892934680177
523,1117,33579008,20.70546682402793
524,1119,33579008,16.855459412681824
525,1121,33579008,18.34629741330326
526,1123,33579008,16.938717159457664
527,1125,33579008,17.458668578615463
528,1127,33579008,19.74175516325644
529,1129,33579008,17.012305661090473
530,1131,33579008,17.643011127825236
531,1133,33579008,16.58217704046309
532,1135,33579008,17.838553663864545
533,1137,33579008,16.715837304996878
534,1143,33579008,24.80328376223304
535,1145,33579008,24.83321981302799
536,1147,33579008,21.312292059381683
537,1149,33579008,18.37649840199641
538,1151,33579008,24.807406685047443
539,1153,33579008,18.371350788273503
540,1155,33579008,17.242932781899214
541,1157,33579008,17.244349586878297
542,1159,33579008,20.838277036880744
543,1160,33579008,22.249025499673674
544,1161,33579008,18.751847318149732
545,1163,33579008,17.18054171981382
546,1165,33579008,17.731255296959777
547,1167,33579008,15.652411115870885
548,1169,33579008,18.453735700405357
549,1175,33579008,18.967408194862834
550,1176,33579008,22.293457759023042
551,1177,33579008,17.269891949410784
552,1179,33579008,15.926321276306123
553,1181,33579008,16.66116306094157
554,1183,33579008,18.1069669125577
555,1185,33579008,18.446923151297806
556,1187,33579008,16.200971315038593
557,1188,33579008,22.32238653171794
558,1189,33579008,19.205212441776403
559,1191,33579008,24.74014564551732
560,1193,33579008,15.711226793907345
