idx,og Index,data (B),bandwidth (GB/s)
0,6,8192,2.4150943396226414
1,7,8192,2.4854368932038833
2,8,8192,2.4150943396226414
3,9,8192,2.5098039215686274
4,10,8192,2.3703703703703702
5,11,8192,2.4158065467413743
6,12,8192,2.4854368932038833
7,13,8192,2.3486238532110093
8,14,8192,2.4158065467413743
9,15,8192,2.4380952380952383
10,16,8192,2.4380952380952383
11,17,8192,2.6391752577319587
12,22,8192,2.4150943396226414
13,23,8192,2.4854368932038833
14,24,8192,2.4607990387503755
15,25,8192,2.4380952380952383
16,26,8192,2.4854368932038833
17,27,8192,2.4380952380952383
18,28,8192,2.4158065467413743
19,29,8192,2.56
20,30,8192,2.392523364485981
21,31,8192,0.9142857142857143
22,32,8192,2.6666666666666665
23,33,8192,2.4615384615384617
24,38,8192,2.5098039215686274
25,39,8192,2.5098039215686274
26,40,8192,2.694736842105263
27,41,8192,2.4854368932038833
28,42,8192,2.4150943396226414
29,43,8192,0.9885362616145771
30,44,8192,2.4854368932038833
31,45,8192,2.347950702206936
32,46,8192,2.4380952380952383
33,47,8192,1.620253164556962
34,48,8192,2.4854368932038833
35,49,8192,2.5098039215686274
36,54,8192,2.4854368932038833
37,55,8192,2.349297390306854
38,56,8192,2.4150943396226414
39,57,8192,1.28
40,58,8192,2.4380952380952383
41,59,8192,2.4861911987860394
42,60,8192,2.392523364485981
43,61,8192,1.3763440860215055
44,62,8192,2.4615384615384617
45,63,8192,2.5090352220520673
46,64,8192,2.4150943396226414
47,65,8192,0.7901234567901234
48,70,8192,2.4854368932038833
49,71,8192,1.003921568627451
50,72,8192,2.693850707004275
51,73,8192,1.2075471698113207
52,74,8192,2.4380952380952383
53,75,8192,2.4380952380952383
54,76,8192,2.4854368932038833
55,77,8192,2.4380952380952383
56,78,8192,2.098360655737705
57,79,8192,2.3918248175182484
58,80,8192,2.7243099434652476
59,81,8192,1.7181208053691275
60,86,8192,2.4143825523135867
61,87,8192,0.9696969696969697
62,88,8192,2.6122448979591835
63,89,8192,2.4150943396226414
64,90,8192,2.4380952380952383
65,91,8192,0.9696969696969697
66,92,8192,2.265486725663717
67,93,8192,1.147982062780269
68,94,8192,2.4380952380952383
69,95,8192,2.4861911987860394
70,96,8192,2.4150943396226414
71,97,8192,2.4615384615384617
72,102,8192,2.4854368932038833
73,103,8192,1.533221036870672
74,104,8192,2.4150943396226414
75,105,8192,2.392523364485981
76,106,8192,2.5098039215686274
77,107,8192,1.3840175705355635
78,108,8192,2.5346534653465347
79,109,8192,2.535437944908697
80,110,8192,2.4150943396226414
81,111,8192,2.4380952380952383
82,112,8192,2.4158065467413743
83,113,8192,2.4615384615384617
84,118,8192,2.4615384615384617
85,119,8192,2.4854368932038833
86,120,8192,2.5098039215686274
87,121,8192,2.4615384615384617
88,122,8192,2.4380952380952383
89,123,8192,2.4380952380952383
90,124,8192,2.6391752577319587
91,125,8192,2.4615384615384617
92,126,8192,2.4380952380952383
93,127,8192,1.0987124463519313
94,128,8192,2.4854368932038833
95,129,8192,2.4854368932038833
96,134,8192,2.4380952380952383
97,135,8192,2.4380952380952383
98,136,8192,2.3486238532110093
99,137,8192,2.4615384615384617
100,138,8192,2.4150943396226414
101,139,8192,2.5098039215686274
102,140,8192,2.392523364485981
103,141,8192,2.4854368932038833
104,142,8192,2.438821077701697
105,143,8192,2.4615384615384617
106,144,8192,2.4380952380952383
107,145,8192,2.4380952380952383
108,150,8192,2.3918248175182484
109,151,8192,2.4380952380952383
110,152,8192,2.5098039215686274
111,153,8192,2.6391752577319587
112,154,8192,2.4615384615384617
113,155,8192,2.4615384615384617
114,156,8192,2.4150943396226414
115,157,8192,2.585858585858586
116,158,8192,2.4615384615384617
117,159,8192,2.4607990387503755
118,160,8192,2.3703703703703702
119,161,8192,2.462278328824767
120,166,8192,2.510573092246399
121,167,8192,2.4380952380952383
122,168,8192,2.4150943396226414
123,169,8192,2.723404255319149
124,170,8192,2.4380952380952383
125,171,8192,2.4854368932038833
126,173,8192,2.392523364485981
127,174,8192,2.4615384615384617
128,175,8192,2.4380952380952383
129,176,8192,2.4615384615384617
130,177,8192,2.56
131,182,8192,2.4380952380952383
132,183,8192,1.673202614379085
133,184,8192,2.4854368932038833
134,185,8192,2.4150943396226414
135,186,8192,2.4607990387503755
136,187,8192,2.4615384615384617
137,188,8192,2.4615384615384617
138,189,8192,2.4150943396226414
139,190,8192,2.327272727272727
140,191,8192,1.3333333333333333
141,192,8192,2.4380952380952383
142,193,8192,2.6122448979591835
143,199,8192,2.5098039215686274
144,200,8192,2.56
145,201,8192,2.56
146,202,8192,2.4615384615384617
147,203,8192,2.392523364485981
148,204,8192,2.4380952380952383
149,205,8192,3.0476190476190474
150,206,8192,2.4380952380952383
151,207,8192,2.4380952380952383
152,208,8192,2.4158065467413743
153,209,8192,2.56
154,214,8192,2.5346534653465347
155,215,8192,2.5098039215686274
156,216,8192,2.56
157,217,8192,0.9846153846153847
158,219,8192,2.4150943396226414
159,220,8192,2.4150943396226414
160,221,8192,2.3056571911061075
161,222,8192,2.4615384615384617
162,223,8192,2.4615384615384617
163,224,8192,2.4380952380952383
164,225,8192,2.4854368932038833
165,230,8192,2.4854368932038833
166,231,8192,2.4854368932038833
167,232,8192,2.4380952380952383
168,233,8192,1.6957151728420616
169,234,8192,2.4150943396226414
170,235,8192,2.4150943396226414
171,236,8192,2.5098039215686274
172,237,8192,2.4150943396226414
173,238,8192,2.4380952380952383
174,239,8192,2.4854368932038833
175,240,8192,2.392523364485981
176,241,8192,2.723404255319149
177,246,8192,2.4854368932038833
178,247,8192,2.4615384615384617
179,248,8192,2.5098039215686274
180,249,8192,2.8131868131868134
181,250,8192,2.4380952380952383
182,251,8192,1.0893617021276596
183,252,8192,2.3932223196026876
184,253,8192,2.4150943396226414
185,254,8192,2.4380952380952383
186,255,8192,2.5098039215686274
187,256,8192,2.723404255319149
188,257,8192,2.392523364485981
189,262,8192,2.4615384615384617
190,263,8192,2.4380952380952383
191,264,8192,2.4615384615384617
192,265,8192,2.4615384615384617
193,266,8192,2.4854368932038833
194,267,8192,2.4380952380952383
195,268,8192,2.585858585858586
196,269,8192,2.4854368932038833
197,270,8192,2.392523364485981
198,271,8192,2.4615384615384617
199,272,8192,2.245614035087719
200,273,8192,2.814153211954655
201,278,8192,2.4158065467413743
202,279,8192,2.5098039215686274
203,280,8192,2.4854368932038833
204,281,8192,1.855072463768116
205,282,8192,2.4615384615384617
206,283,8192,0.9014084507042254
207,284,8192,2.723404255319149
208,285,8192,2.4854368932038833
209,286,8192,2.5346534653465347
210,287,8192,2.4615384615384617
211,288,8192,2.5346534653465347
212,289,8192,2.3486238532110093
213,294,8192,2.4854368932038833
214,295,8192,2.392523364485981
215,296,8192,2.4615384615384617
216,297,8192,2.56
217,298,8192,2.392523364485981
218,299,8192,2.4615384615384617
219,300,8192,1.299492385786802
220,301,8192,2.6122448979591835
221,302,8192,0.9922480620155039
222,303,8192,1.1689497716894977
223,304,8192,2.4615384615384617
224,305,8192,0.9923682616596002
225,310,8192,2.4854368932038833
226,311,8192,1.024
227,312,8192,0.8678885475156266
228,313,8192,2.6391752577319587
229,314,8192,2.4380952380952383
230,315,8192,2.4854368932038833
231,316,8192,2.392523364485981
232,317,8192,1.0666666666666667
233,318,8192,2.245614035087719
234,319,8192,2.5098039215686274
235,320,8192,2.722499169159189
236,321,8192,1.0893617021276596
237,326,8192,1.0940170940170941
238,327,8192,2.4854368932038833
239,328,8192,2.723404255319149
240,329,8192,1.024
241,330,8192,2.4607990387503755
242,331,8192,2.4615384615384617
243,332,8192,1.0079980312538452
244,333,8192,2.4607990387503755
245,334,8192,2.4615384615384617
246,335,8192,2.4380952380952383
247,336,8192,2.3486238532110093
248,337,8192,0.8338762214983714
249,342,8192,2.4615384615384617
250,343,8192,2.5090352220520673
251,344,8192,2.6383252818035428
252,345,8192,2.4380952380952383
253,346,8192,2.462278328824767
254,347,8192,2.4380952380952383
255,348,8192,2.6666666666666665
256,349,8192,2.694736842105263
257,350,8192,2.4380952380952383
258,351,8192,2.5098039215686274
259,352,8192,2.349297390306854
260,353,8192,2.585858585858586
261,358,8192,2.4854368932038833
262,359,8192,2.392523364485981
263,360,8192,2.4380952380952383
264,361,8192,2.585858585858586
265,362,8192,2.4380952380952383
266,363,8192,2.4615384615384617
267,364,8192,2.437369830407617
268,365,8192,2.782608695652174
269,366,8192,2.4380952380952383
270,367,8192,2.4158065467413743
271,368,8192,2.4143825523135867
272,369,8192,2.752688172043011
273,375,8192,2.5098039215686274
274,376,8192,2.4150943396226414
275,377,8192,2.6666666666666665
276,378,8192,2.4615384615384617
277,379,8192,2.4150943396226414
278,380,8192,2.56
279,381,8192,2.56
280,382,8192,2.4380952380952383
281,383,8192,2.392523364485981
282,384,8192,2.5346534653465347
283,385,8192,2.6122448979591835
284,390,8192,2.4854368932038833
285,391,8192,2.4380952380952383
286,392,8192,2.462278328824767
287,393,8192,2.4854368932038833
288,395,8192,2.4380952380952383
289,396,8192,2.4615384615384617
290,397,8192,2.4380952380952383
291,398,8192,2.586675086832965
292,399,8192,2.392523364485981
293,400,8192,2.392523364485981
294,401,8192,2.4150943396226414
295,406,8192,2.4854368932038833
296,407,8192,2.1880341880341883
297,408,8192,2.8753948753948753
298,409,8192,2.4150943396226414
299,410,8192,2.4615384615384617
300,411,8192,2.048
301,412,8192,2.4150943396226414
302,413,8192,2.585858585858586
303,414,8192,2.4615384615384617
304,415,8192,2.392523364485981
305,416,8192,2.4150943396226414
306,417,8192,3.011764705882353
307,422,8192,2.4150943396226414
308,423,8192,2.4615384615384617
309,424,8192,2.585858585858586
310,425,8192,2.392523364485981
311,426,8192,2.4380952380952383
312,427,8192,2.4854368932038833
313,428,8192,2.4150943396226414
314,429,8192,2.4380952380952383
315,430,8192,2.392523364485981
316,431,8192,2.4150943396226414
317,432,8192,2.6391752577319587
318,433,8192,2.4854368932038833
319,438,8192,2.4150943396226414
320,439,8192,2.4615384615384617
321,440,8192,2.510573092246399
322,441,8192,2.585858585858586
323,442,8192,2.437369830407617
324,443,8192,2.4615384615384617
325,444,8192,2.694736842105263
326,445,8192,1.0756302521008403
327,446,8192,2.392523364485981
328,447,8192,2.4615384615384617
329,448,8192,2.4615384615384617
330,449,8192,2.4150943396226414
331,454,8192,2.4615384615384617
332,455,8192,2.4854368932038833
333,456,8192,2.06503655155029
334,457,8192,2.392523364485981
335,458,8192,2.5098039215686274
336,459,8192,2.4380952380952383
337,460,8192,2.613078149920255
338,461,8192,2.392523364485981
339,462,8192,2.4615384615384617
340,463,8192,2.1333333333333333
341,464,8192,2.3486238532110093
342,465,8192,2.4615384615384617
343,470,8192,2.4380952380952383
344,471,8192,2.4380952380952383
345,472,8192,2.4150943396226414
346,473,8192,2.4615384615384617
347,474,8192,2.4615384615384617
348,475,8192,2.4150943396226414
349,476,8192,2.56
350,477,8192,2.4854368932038833
351,478,8192,2.4615384615384617
352,479,8192,2.4854368932038833
353,480,8192,2.4150943396226414
354,481,8192,2.4380952380952383
355,486,8192,2.4854368932038833
356,487,8192,2.4861911987860394
357,488,8192,2.3486238532110093
358,489,8192,2.4150943396226414
359,490,8192,2.4854368932038833
360,491,8192,2.392523364485981
361,492,8192,2.4854368932038833
362,493,8192,2.4150943396226414
363,494,8192,2.4380952380952383
364,495,8192,2.4380952380952383
365,497,8192,2.4615384615384617
366,502,8192,2.2863522188110523
367,503,8192,2.5098039215686274
368,504,8192,2.694736842105263
369,505,8192,2.4150943396226414
370,506,8192,2.4380952380952383
371,507,8192,2.169491525423729
372,508,8192,2.585858585858586
373,509,8192,2.5098039215686274
374,510,8192,2.4150943396226414
375,511,8192,2.5098039215686274
376,512,8192,2.4150943396226414
377,513,8192,2.462278328824767
