idx,og Index,data (B),bandwidth (GB/s)
0,4,67149824,22.892081705343532
1,6,67149824,22.16499380764894
2,8,67149824,22.416443530944623
3,10,67149824,22.328673616782428
4,12,67149824,22.493583198672958
5,14,67149824,21.99816020861452
6,16,67149824,22.473340323570095
7,18,67149824,22.463484281206764
8,20,67149824,22.573433268520684
9,22,67149824,22.379634246162624
10,24,67149824,22.601142143213195
11,26,67149824,22.34198667529073
12,28,67149824,22.75432180760942
13,30,67149824,22.343889836847584
14,36,67149824,22.518196192184842
15,38,67149824,22.24700434935873
16,40,67149824,22.715158272466248
17,42,67149824,22.165462059495358
18,44,67149824,22.64284469058463
19,46,67149824,22.274870297883634
20,48,67149824,22.45194018372857
21,50,67149824,22.50974189990765
22,52,67149824,22.580477503530837
23,54,67149824,22.272033284422072
24,56,67149824,22.710487368674528
25,58,67149824,22.347221149878198
26,60,67149824,22.858915357793176
27,62,67149824,22.60674992526118
28,68,67149824,22.04808498007623
29,70,67149824,22.44882523635683
30,72,67149824,22.48923645241831
31,74,67149824,22.56129835152577
32,76,67149824,22.3822525438005
33,78,67149824,22.232626390246356
34,80,67149824,22.52544778460047
35,82,67149824,22.303035778281668
36,84,67149824,22.588741862649325
37,86,67149824,22.46877584836163
38,88,67149824,22.579983960267196
39,90,67149824,22.127364322488972
40,92,67149824,22.29167076095299
41,94,67149824,22.415732647540306
42,100,67149824,22.327010599954782
43,102,67149824,22.43778352210303
44,104,67149824,22.4579548525363
45,106,67149824,22.37414601509251
46,108,67149824,22.631863050412395
47,110,67149824,22.241337862209335
48,112,67149824,22.617463422093497
49,114,67149824,22.64285232572882
50,116,67149824,22.448577578843523
51,118,67149824,22.214275860677255
52,120,67149824,22.617707201813463
53,122,67149824,22.327010599954782
54,124,67149824,22.605524649849098
55,126,67149824,22.390372414722133
56,132,67149824,22.084980200755133
57,134,67149824,22.004626390612472
58,136,67149824,22.113606605317027
59,138,67149824,22.176940413063523
60,140,67149824,22.099400500767477
61,142,67149824,22.11127648420892
62,144,67149824,22.026099438177184
63,146,67149824,22.099633240568384
64,148,67149824,22.117102707944127
65,150,67149824,22.15820637841234
66,152,67149824,22.194994528084923
67,154,67149824,21.980647813779072
68,156,67149824,22.15820637841234
69,158,67149824,22.16078043113804
70,164,67149824,22.276289075665936
71,166,67149824,22.10382339541951
72,168,67149824,22.147916144438433
73,170,67149824,22.05735518643195
74,173,67149824,19.48166847074449
75,174,67149824,21.90927480925993
76,177,67149824,23.161173562322002
77,179,67149824,20.416300246577258
78,181,67149824,20.656463198176443
79,183,67149824,19.93396807528796
80,185,67149824,20.490061302518317
81,187,67149824,24.39801385476549
82,189,67149824,21.52498042231385
83,191,67149824,20.94135096548769
84,197,67149824,20.78659402019354
85,199,67149824,21.592527518888286
86,201,67149824,19.013709444274394
87,203,67149824,19.998553786571538
88,205,67149824,20.484860687329128
89,206,67149824,22.23945949526396
90,208,67149824,22.156334715619483
91,210,67149824,22.2736881211108
92,212,67149824,22.308496586110024
93,214,67149824,22.44137538754502
94,216,67149824,22.265180151144992
95,218,67149824,22.104521909045662
96,220,67149824,22.26447144702534
97,222,67149824,22.43633660273213
98,228,67149824,21.876163324638227
99,230,67149824,22.506128118020232
100,232,67149824,21.94914975014186
101,234,67149824,22.28125622151376
102,236,67149824,21.810898526924106
103,238,67149824,22.116403398985575
104,240,67149824,22.214731498785383
105,242,67149824,22.33651689130753
106,244,67149824,22.448817731503414
107,246,67149824,22.47599564068303
108,248,67149824,22.34436567789955
109,250,67149824,22.46371723809629
110,252,67149824,22.076615756071003
111,254,67149824,22.150253994643023
112,260,67149824,22.248419579455724
113,262,67149824,22.415732647540306
114,264,67149824,22.336279135365857
115,266,67149824,22.387035688662362
116,268,67149824,22.359841552719416
117,270,67149824,22.362224359469618
118,272,67149824,22.336754652310788
119,274,67149824,22.293557958256656
120,276,67149824,22.31347069251691
121,278,67149824,22.41214150492501
122,280,67149824,21.726440905220056
123,282,67149824,22.581198874804326
124,284,67149824,22.283149050267465
125,286,67149824,22.40926941919293
126,292,67149824,22.03188085495077
127,294,67149824,22.0429896872021
128,296,67149824,22.31822448171064
129,298,67149824,22.48875442115335
130,300,67149824,22.311580122539574
131,302,67149824,22.55959292510498
132,304,67149824,22.469490100181062
133,306,67149824,22.365799521973496
134,308,67149824,21.958796491292325
135,310,67149824,22.272978875276298
136,312,67149824,22.31014943354
137,314,67149824,22.625998840224987
138,316,67149824,22.15890833348733
139,318,67149824,22.248419579455724
140,324,67149824,22.31940397229927
141,326,67149824,22.33794353325651
142,328,67149824,22.37629326316856
143,330,67149824,22.453381608508966
144,332,67149824,22.256686055279587
145,334,67149824,22.078481233241764
146,336,67149824,22.367229907079988
147,338,67149824,22.369852755013657
148,340,67149824,22.38369249559325
149,342,67149824,22.655075154992833
150,344,67149824,22.128064324787452
151,346,67149824,22.49767534580006
152,348,67149824,22.30067297397108
153,350,67149824,22.432266737220758
154,356,67149824,22.215679579915783
155,358,67149824,22.497441684066075
156,360,67149824,22.251965816384185
157,362,67149824,22.53198577276693
158,364,67149824,22.252902329551933
159,366,67149824,22.594822457730917
160,368,67149824,22.648709998276466
161,370,67149824,22.384408810046377
162,372,67149824,22.47936646518317
163,374,67149824,22.576825794200346
164,376,67149824,22.61234526161525
165,378,67149824,22.402084950663575
166,380,67149824,22.507093691427773
167,382,67149824,22.283149050267465
168,388,67149824,22.2736881211108
169,390,67149824,22.465648711943793
170,392,67149824,22.43202693854644
171,394,67149824,22.228858198381907
172,396,67149824,22.44642393934937
173,398,67149824,22.417887885561974
174,400,67149824,22.316318273074685
175,402,67149824,22.43538458659981
176,404,67149824,22.466843836791586
177,406,67149824,22.425554311729048
178,408,67149824,22.44882523635683
179,410,67149824,22.495987060502134
180,412,67149824,22.316800357335616
181,414,67149824,22.56542275917876
182,420,67149824,22.216149975782184
183,422,67149824,22.478884856924786
184,424,67149824,22.34222455275507
185,426,67149824,22.523997092501585
186,428,67149824,22.32652807447737
187,430,67149824,22.35674466299991
188,432,67149824,22.47863653573008
189,434,67149824,22.359841552719416
190,436,67149824,22.384408810046377
191,438,67149824,22.39492002507971
192,440,67149824,22.257150812064964
193,442,67149824,22.60869846280649
194,444,67149824,22.297118600394743
195,446,67149824,22.24040232214918
196,452,67149824,22.241109494776058
197,454,67149824,22.498647732237583
198,456,67149824,22.312291828928235
199,458,67149824,22.277235027933703
200,460,67149824,22.578526235374778
201,462,67149824,22.425075006478743
202,464,67149824,22.486826502711654
203,466,67149824,22.468535268498865
204,468,67149824,22.39731031446373
205,470,67149824,22.675149187001754
206,472,67149824,22.15259233844895
207,474,67149824,22.58192788628229
208,476,67149824,22.39372507170013
209,478,67149824,22.41237339812857
210,484,67149824,22.28385894396466
211,487,67149824,19.564129286165254
212,488,67149824,22.30636232935505
213,490,67149824,22.55207696273272
214,492,67149824,22.50830077470322
215,494,67149824,22.063616983805296
216,496,67149824,22.583872147034004
217,498,67149824,22.294749647400057
218,500,67149824,22.189603804659598
219,502,67149824,22.531259982229955
220,504,67149824,21.885974264112743
221,506,67149824,22.696723990550836
222,508,67149824,22.36150946412159
223,510,67149824,22.30588810553254
224,516,67149824,22.2206197302413
225,518,67149824,22.50830077470322
226,520,67149824,22.44858508353637
227,522,67149824,22.520862120313705
228,524,67149824,21.95971567080812
229,526,67149824,22.497441684066075
230,529,67149824,20.56717904549662
231,531,67149824,19.214804623697884
232,532,67149824,22.717609729049084
233,534,67149824,22.245825128472877
234,536,67149824,22.482008152469596
235,538,67149824,22.625762505357418
236,540,67149824,22.379634246162624
237,542,67149824,22.24747607271879
238,548,67149824,22.377963629965155
239,550,67149824,22.432746349950424
240,552,67149824,21.776720414066858
241,554,67149824,21.982957679667365
242,556,67149824,22.241109494776058
243,558,67149824,22.67931532943354
244,560,67149824,21.779213656429814
245,562,67149824,22.36795261912257
246,564,67149824,22.40185327031218
247,566,67149824,22.398505650509012
248,568,67149824,22.386558028510848
249,570,67149824,22.523762883693223
250,572,67149824,22.21309275867818
251,574,67149824,22.57003417612941
252,580,67158016,22.325458689367768
253,582,67158016,22.61145663024126
254,585,67158016,20.09695541282718
255,586,67158016,22.53086376677787
256,588,67158016,22.40004269342121
257,590,67158016,22.49271075314626
258,592,67158016,22.463098688030655
259,594,67158016,22.489810803398218
260,596,67158016,22.677915461149247
261,598,67158016,22.559434747863325
262,600,67158016,22.79936542833757
263,602,67158016,22.562837814229386
264,604,67158016,22.83906384278261
265,606,67158016,22.598552250096237
266,612,67158016,22.425414261328577
267,614,67158016,22.492469689865363
268,616,67158016,22.748949659179097
269,618,67158016,22.655882202125046
270,620,67158016,22.872674860566562
271,622,67158016,22.413439383138293
272,624,67158016,22.758825235795985
273,626,67158016,22.489095346401236
274,628,67158016,22.557260051645425
275,630,67158016,22.597084701530328
276,632,67158016,22.881901911560675
277,634,67158016,22.449882733002973
278,636,67158016,22.932400348162094
279,638,67158016,22.608533593314462
280,644,67158016,22.752656813666633
281,646,67158016,22.80011624464609
282,648,67158016,22.651236208510856
283,650,67158016,22.42900172964907
284,652,67158016,22.932400348162094
285,654,67158016,22.545386183392463
286,656,67158016,22.699247380772196
287,658,67158016,22.510563786284106
288,660,67158016,22.589065977090055
289,662,67158016,22.470554539882063
290,664,67158016,22.82143062246645
291,666,67158016,22.461415793290005
292,668,67158016,22.81002855753215
293,670,67158016,22.393589295574767
294,676,67158016,22.578615980053847
295,678,67158016,22.58565499493691
296,680,67158016,22.74895736510784
297,682,67158016,22.47416398726739
298,684,67158016,22.709325571266646
299,686,67158016,22.53933290195436
300,688,67158016,22.48764950911453
301,690,67158016,22.574479664048475
302,692,67158016,22.747470217580766
303,694,67158016,22.478256096352766
304,696,67158016,22.666151409369334
305,698,67158016,22.38976681415811
306,700,67158016,22.56623432480746
307,702,67158016,22.65489629748822
308,708,67158016,22.64072862417438
309,710,67158016,22.38236446871309
310,712,67158016,22.670321390667493
311,714,67158016,22.343522848557278
312,716,67158016,22.80978064467045
313,718,67158016,22.639995900677736
314,720,67158016,22.84478962851288
315,722,67158016,22.584925831750784
316,724,67158016,22.413439383138293
317,726,67158016,22.62876674295172
318,728,67158016,22.64756966457945
319,730,67158016,22.57351600629227
320,732,67158016,22.455407512819622
321,734,67158016,22.61949888044319
322,740,67158016,22.44484824381253
323,742,67158016,22.549019713179813
324,744,67158016,22.59709230491767
325,746,67158016,22.503322655443714
326,748,67158016,22.699255053065638
327,750,67158016,22.332110506643964
328,752,67158016,22.707851278791402
329,754,67158016,22.427331429380537
330,756,67158016,22.62827114699006
331,759,67158016,20.21425333578143
332,760,67158016,22.60730827402779
333,762,67158016,22.68747652134902
334,764,67158016,22.851249148922342
335,766,67158016,22.477774594410782
336,772,67158016,22.57108825704107
337,774,67158016,22.552169719829035
338,776,67158016,22.739837200167948
339,778,67158016,22.296521958539728
340,780,67158016,22.57302282745883
341,782,67158016,22.42493502052897
342,784,67158016,22.509356607542667
343,786,67158016,22.356130091487742
344,788,67158016,22.565984100524417
345,790,67158016,22.496809619646633
346,792,67158016,22.660033113778255
347,794,67158016,22.52892885800854
348,796,67158016,22.62681498292494
349,798,67158016,22.550465881003493
350,804,67158016,22.38546808209936
351,806,67158016,22.54659722986928
352,808,67158016,22.647325270521456
353,810,67158016,22.563072807703925
354,812,67158016,22.916624495783537
355,814,67158016,22.615347573071855
356,816,67158016,22.91687473660683
357,818,67158016,22.406260592909323
358,820,67158016,22.667138293879557
359,822,67158016,22.465984237217828
360,824,67158016,22.625107469066428
361,826,67158016,22.402433784775504
362,828,67158016,22.692628124552282
363,830,67158016,22.534008702491295
364,836,67158016,22.429248925261238
365,838,67158016,22.58809347630131
366,840,67158016,22.630718839720174
367,842,67158016,22.279479714325902
368,844,67158016,22.672762880660297
369,846,67158016,22.32901424597286
370,848,67158016,22.65417029854734
371,850,67158016,22.379500358562446
372,852,67158016,22.36256936064338
373,854,67158016,22.31311582164928
374,856,67158016,22.917124982895253
375,858,67158016,22.311218130161034
376,860,67158016,22.71768351261755
377,862,67158016,22.418706753584562
378,868,67158016,22.807789789918292
379,870,67158016,22.284920931985845
380,872,67158016,22.87516792422496
381,874,67158016,22.451804087178157
382,876,67158016,22.73614191888415
383,878,67158016,22.229686180114765
384,880,67158016,22.685261744513035
385,882,67158016,22.522151740605292
386,884,67158016,22.762520179624502
387,886,67158016,22.440520838623964
388,888,67158016,22.946198526698467
389,890,67158016,22.395986477973683
390,892,67158016,22.73023196622992
391,894,67158016,22.20499025279257
392,900,67158016,22.489577333479787
393,902,67158016,22.585419530844334
394,904,67158016,22.58298922064192
395,906,67158016,22.449642586852864
396,908,67158016,22.669334228971767
397,910,67158016,22.524818280120957
398,912,67158016,22.59709230491767
399,914,67158016,22.28586750202424
400,916,67158016,22.386423213233314
401,918,67158016,22.233226015232
402,920,67158016,22.506942638443906
403,922,67158016,22.467427289831683
404,924,67158016,22.36542913852589
405,926,67158016,22.398130187808334
406,932,67158016,22.738851674381944
407,934,67158016,22.54490180122839
408,936,67158016,22.293679774161937
409,938,67158016,22.426612452948138
410,940,67158016,22.38833372004022
411,942,67158016,22.166293036753036
412,944,67158016,22.629498739773293
413,946,67158016,22.439313662824986
414,948,67158016,22.493916147062844
415,950,67158016,22.226861008512383
416,952,67158016,22.605854806612577
417,954,67158016,22.33234814485729
418,956,67158016,22.33638876841576
419,958,67158016,21.998307167807887
420,964,67158016,22.37639839962043
421,966,67158016,22.222396641790922
422,968,67158016,22.632915351204744
423,970,67158016,22.33520019794973
424,972,67158016,22.363760845878634
425,974,67158016,22.37282773779577
426,976,67158016,22.4594927937545
427,978,67158016,22.34709159783098
428,980,67158016,22.60366354415451
429,982,67158016,22.148514198421722
430,984,67158016,22.690412341840688
431,986,67158016,22.301734512522017
432,988,67158016,22.563565551849354
433,990,67158016,22.278770186170565
434,996,67158016,22.51466916270849
435,998,67158016,22.37067396477614
436,1000,67158016,22.542238071326338
437,1002,67158016,22.37425139326807
438,1004,67158016,22.650250708178515
439,1006,67158016,22.42900922034514
440,1008,67158016,22.700237149447418
441,1010,67158016,22.361854530440457
442,1012,67158016,22.630718839720174
443,1014,67158016,22.456608911751882
444,1016,67158016,22.60268978608258
445,1018,67158016,22.574487252231297
446,1020,67158016,22.41463629542803
447,1022,67158016,22.578130168984615
448,1029,67158016,21.817194705373083
