idx,og Index,data (B),bandwidth (GB/s)
0,5,33652736,20.78950193885727
1,7,33652736,18.22219743458817
2,9,33652736,17.06212389694605
3,11,33652736,15.919008399728098
4,13,33652736,17.717496039553396
5,15,33652736,18.2620777678772
6,21,33652736,16.329074209487175
7,23,33652736,14.741693522987068
8,25,33652736,20.672635955299135
9,27,33652736,15.846328070959409
10,29,33652736,15.334539643511192
11,31,33652736,15.790421600478977
12,37,33652736,16.32349815411525
13,39,33652736,17.66571932215348
14,41,33652736,17.025386252599766
15,43,33652736,24.742566621204826
16,45,33652736,19.35506906293423
17,47,33652736,16.48134747202072
18,53,33652736,16.38632152851256
19,55,33652736,23.71698110548089
20,57,33652736,18.546122081427665
21,59,33652736,17.357525642176235
22,61,33652736,18.79571749401127
23,63,33652736,22.549377446559305
24,69,33652736,17.105973692998912
25,71,33652736,17.597729266958595
26,73,33652736,23.326639282332668
27,75,33652736,16.06614991817194
28,77,33652736,19.292233801717185
29,79,33652736,16.905511150450835
30,85,33652736,16.690068555144414
31,87,33652736,17.028410085666433
32,89,33652736,24.75945988300359
33,91,33652736,14.714061476603264
34,93,33652736,16.021846975949664
35,95,33652736,16.61623083672338
36,101,33652736,15.767929935171667
37,103,33652736,16.285840939227054
38,104,33652736,23.24926924471925
39,105,33652736,17.26804132704243
40,107,33652736,16.83002853120554
41,109,33652736,17.27370514206403
42,111,33652736,17.600379907177967
43,117,33652736,14.557230570380758
44,119,33652736,17.394849062201818
45,121,33652736,21.647073958789637
46,123,33652736,17.076253353447676
47,125,33652736,17.766293772008087
48,127,33652736,19.46793287609104
49,133,33652736,16.16045232141751
50,135,33652736,17.57214751258147
51,137,33652736,19.315620273725717
52,138,33652736,23.439966176754318
53,139,33652736,17.744111174032113
54,141,33652736,16.41881203818222
55,143,33652736,17.46532830331254
56,149,33652736,18.880066066443455
57,151,33652736,16.13120965128742
58,152,33652736,23.745363151039278
59,153,33652736,17.49410031492019
60,155,33652736,17.76899543904595
61,157,33652736,16.905511150450835
62,158,33652736,23.328191612515926
63,159,33652736,17.313242344593487
64,165,33652736,17.831663704678668
65,167,33652736,17.455770725032497
66,169,33652736,18.38852867666907
67,171,33652736,20.9945268942043
68,173,33652736,16.143335407251485
69,175,33652736,21.75094510352673
70,180,33652736,23.356671448669125
71,181,33652736,17.594785047373964
72,183,33652736,17.66275231014216
73,185,33652736,17.579784838838084
74,187,33652736,17.918252556005296
75,189,33652736,16.23504700061992
76,191,33652736,17.069315568486264
77,197,33652736,18.02111378029202
78,199,33652736,15.121984274414963
79,201,33652736,14.79187176907392
80,203,33652736,16.234796372384853
81,205,33652736,14.614684022780551
82,207,33652736,16.88379823971238
83,213,33652736,17.23775565764759
84,215,33652736,22.313045473140658
85,217,33652736,15.9115493799492
86,219,33652736,17.257556682490364
87,220,33652736,23.031362538239904
88,221,33652736,17.525294260398972
89,223,33652736,17.71421322388787
90,229,33652736,16.25789446223354
91,231,33652736,17.359540239134663
92,233,33652736,17.400317471807572
93,235,33652736,17.668390485360842
94,237,33652736,16.94472691751887
95,239,33652736,18.10488033458757
96,245,33652736,15.621076945072126
97,247,33652736,18.016781816575698
98,249,33652736,16.827865680045523
99,251,33652736,16.408316901971567
100,252,33652736,23.73945020658344
101,253,33652736,14.494631177161247
102,255,33652736,14.778152946936912
103,260,33652736,23.520716816818915
104,261,33652736,15.761076817879523
105,263,33652736,17.67432929666615
106,264,33652736,24.012095689519235
107,265,33652736,20.40429104036447
108,266,33652736,23.228215051625945
109,267,33652736,16.79240536015908
110,269,33652736,16.17337602949707
111,271,33652736,17.524418148092987
112,277,33652736,23.24978323844186
113,278,33652736,23.328191612515926
114,279,33652736,18.90485256256492
115,281,33652736,17.849520356346115
116,283,33652736,20.049912776565016
117,285,33652736,16.107984124036232
118,287,33652736,17.969679898715846
119,293,33652736,16.098367619510498
120,295,33652736,17.52500221323043
121,297,33652736,17.188451321309035
122,299,33652736,18.177472245823708
123,301,33652736,17.998897155763643
124,302,33652736,23.56233218016822
125,303,33652736,16.254878965336694
126,308,33652736,23.83522240739547
127,309,33652736,18.626601051750065
128,310,33652736,23.66627706632348
129,311,33652736,17.127416601606438
130,313,33652736,17.37903881330181
131,314,33652736,23.66042007365421
132,315,33652736,18.698800429176202
133,316,33652736,23.164260142746322
134,317,33652736,17.284502377774093
135,319,33652736,17.537861503328536
136,324,33652736,23.628523804241134
137,325,33652736,15.908412809840197
138,326,33652736,22.993595113318804
139,327,33652736,17.54781116023056
140,329,33652736,16.156479950070214
141,331,33652736,14.598853096288636
142,332,33652736,22.896475522153686
143,333,33652736,14.673411672371317
144,335,33652736,16.169397302885127
145,340,33652736,23.551251124104652
146,341,33652736,18.515754718382585
147,343,33652736,17.003914371914345
148,344,33652736,23.61419852277655
149,345,33652736,15.94821918132812
150,347,33652736,18.22219743458817
151,349,33652736,21.209622902765723
152,351,33652736,17.701401374127233
153,357,33652736,18.06941743350297
154,358,33652736,23.711082285914788
155,359,33652736,18.46147296862134
156,361,33652736,16.064178934198548
157,362,33652736,23.60305208591233
158,363,33652736,14.86400037455119
159,365,33652736,14.642963094465758
160,367,33652736,16.11637712225613
161,372,33652736,22.77645491812987
162,375,33652736,21.76489998337853
163,377,33652736,16.54746868898156
164,379,33652736,17.000607223432965
165,381,33652736,17.54020158385828
166,383,33652736,22.37093782780897
167,389,33652736,16.325786727365518
168,391,33652736,20.748088741578133
169,393,33652736,17.972136641219336
170,395,33652736,16.034794342488702
171,397,33652736,19.849718292579347
172,399,33652736,18.496866231535556
173,405,33652736,17.05050541898527
174,407,33652736,15.878875498976097
175,409,33652736,15.553155578068182
176,411,33652736,20.05526579261025
177,413,33652736,17.2674654037385
178,415,33652736,17.786125096322667
179,420,33652736,24.01538572424586
180,421,33652736,17.032822845712886
181,423,33652736,16.355485397658708
182,425,33652736,16.563627459424872
183,427,33652736,17.40521317454587
184,428,33652736,23.042969418679654
185,429,33652736,17.466207582364767
186,430,33652736,23.5401969521246
187,431,33652736,19.73943483524631
188,437,33652736,17.30611069456401
189,439,33652736,17.91703145580949
190,440,33652736,22.934424464304943
191,441,33652736,17.292735791562652
192,443,33652736,18.861114458320888
193,445,33652736,17.084853287818042
194,446,33652736,22.46124232275082
195,452,33652736,22.858651958620033
196,454,33652736,23.62373019611367
197,455,33652736,16.514986192827337
198,456,33652736,22.845740990413038
199,457,33652736,18.47834091716501
200,459,33652736,17.09095304407533
201,460,33652736,23.492344142888857
202,461,33652736,17.27909763719207
203,462,33652736,23.18162098341323
204,463,33652736,17.159003869512432
205,468,33652736,22.1527686076356
206,471,33652736,16.67260490129778
207,472,33652736,21.909090849905958
208,474,33652736,23.152021079353723
209,475,33652736,14.363378879824358
210,476,33652736,22.420061158819728
211,479,33652736,16.520693861821645
212,484,33652736,22.449734694394895
213,485,33652736,18.08681070802629
214,486,33652736,22.82442021190734
215,487,33652736,17.985660741590316
216,488,33652736,22.720358419115687
217,491,33652736,17.97767637257615
218,492,33652736,22.833836111846168
219,494,33652736,23.247229556190167
220,495,33652736,18.60551065348409
221,500,33652736,23.217461975441854
222,501,33652736,18.28302207638042
223,502,33652736,23.069254234732
224,503,33652736,17.54927529732261
225,504,33652736,23.106763105241548
226,505,33652736,17.214609078548506
227,506,33652736,22.450213943484762
228,509,33652736,16.071052632835674
229,510,33652736,23.349427517196688
230,511,33652736,17.067108093208756
231,3100,33660928,18.23138159298669
232,3102,33660928,17.775122906886484
233,3103,33660928,24.17970354460659
234,3104,33660928,18.098995442039378
235,3105,33660928,24.467667007576335
236,3106,33660928,20.269266713554863
237,3108,33660928,19.12432113656468
238,3109,33660928,24.554481215172586
239,3110,33660928,17.181402741700605
240,3116,33660928,19.161945857325428
241,3118,33660928,16.75288974404022
242,3120,33660928,19.958144785648557
243,3121,33660928,24.596969380321067
244,3122,33660928,15.212280482133746
245,3123,33660928,24.208083090551987
246,3124,33660928,18.26334188239622
247,3125,33660928,24.641336422566038
248,3126,33660928,16.12450109314014
249,3131,33660928,24.29193978709416
250,3132,33660928,16.50112627131398
251,3134,33660928,16.74169118250477
252,3135,33660928,24.297550894603074
253,3136,33660928,16.690952672090333
254,3138,33660928,17.355744278459724
255,3139,33660928,24.316648064871504
256,3140,33660928,18.345849515859513
257,3142,33660928,24.5935189169798
258,3148,33660928,21.034490989974834
259,3150,33660928,18.866044130529698
260,3151,33660928,24.12537394732127
261,3154,33660928,18.31071103546229
262,3155,33660928,24.170258476769977
263,3156,33660928,18.360569609240468
264,3157,33660928,24.695136454108003
265,3158,33660928,14.54426545706881
266,3164,33660928,17.45509455878616
267,3166,33660928,17.157852992958645
268,3168,33660928,19.391555170218712
269,3170,33660928,24.733459862874895
270,3172,33660928,15.938814821268592
271,3174,33660928,18.440070054995473
272,3179,33660928,23.182169918003773
273,3180,33660928,15.853776259742315
274,3182,33660928,16.615287716428394
275,3183,33660928,22.861747292967998
276,3186,33660928,17.220781625942806
277,3188,33660928,18.358967366553458
278,3189,33660928,22.961038252335264
279,3195,33660928,23.438374649931134
280,3197,33660928,22.2457753357592
281,3199,33660928,22.40688883001455
282,3202,33660928,16.812869332243807
283,3203,33660928,23.06930332076413
284,3205,33660928,22.98260989494929
285,3211,33660928,23.950693953292454
286,3212,33660928,14.933684467843554
287,3214,33660928,16.656066654098264
288,3215,33660928,23.436269516631565
289,3216,33660928,14.842654124984401
290,3218,33660928,16.311023156556306
291,3219,33660928,22.715598559090644
292,3222,33660928,16.452347914065
293,3227,33660928,23.92779492895432
294,3228,33660928,17.488758353171736
295,3229,33660928,22.024070087740533
296,3231,33660928,23.79035661934641
297,3232,33660928,16.973747892837387
298,3233,33660928,22.01853797275428
299,3235,33660928,23.528021058605944
300,3236,33660928,16.887628622888478
301,3237,33660928,22.38115938656303
302,3243,33660928,23.157163043672682
303,3245,33660928,21.757589899482188
304,3248,33660928,22.42743133704049
305,3249,33660928,21.52474093968315
306,3251,33660928,23.40550271422641
307,3252,33660928,16.509154579006093
308,3253,33660928,21.974854304726552
309,3259,33660928,22.191350622243874
310,3261,33660928,21.539726774242883
311,3263,33660928,22.95602739371025
312,3264,33660928,17.478587503206395
313,3265,33660928,22.237310350568205
314,3266,33660928,18.94383863851245
315,3268,33660928,18.860293676821023
316,3269,33660928,22.369245859544147
317,3275,33660928,22.609162436241366
318,3277,33660928,22.813636838060177
319,3278,33660928,22.271680545833007
320,3279,33660928,23.01479168974236
321,3280,33660928,15.84374711704469
322,3281,33660928,22.154413187501728
323,3284,33660928,17.558821473544082
324,3285,33660928,22.493132633655375
325,3291,33660928,23.87675790088936
326,3292,33660928,17.704807043436595
327,3293,33660928,22.95602739371025
328,3294,33660928,17.734067965021755
329,3295,33660928,23.596104156473046
330,3296,33660928,17.326290453919825
331,3297,33660928,22.399254709636207
332,3300,33660928,15.37863616365232
333,3301,33660928,22.25001024556301
334,3307,33660928,23.415401845494607
335,3308,33660928,24.790000022093864
336,3309,33660928,22.633486146617376
337,3311,33660928,23.74147753120832
338,3312,33660928,19.165775401069517
339,3313,33660928,22.602846832666994
340,3315,33660928,21.793200786501796
341,3317,33660928,22.2584996227533
342,3323,33660928,22.88162382994922
343,3325,33660928,22.744085417024216
344,3326,33660928,19.692492020255912
345,3328,33660928,20.04905987630202
346,3329,33660928,22.803251168922316
347,3332,33660928,16.191763689503833
348,3333,33660928,22.93800639738762
349,3340,33660928,14.220053270923412
350,3341,33660928,22.791393405438637
351,3343,33660928,23.159712293573943
352,3344,33660928,17.31231773964761
353,3345,33660928,22.442279395341924
354,3347,33660928,23.212848226224555
355,3348,33660928,19.68880611681469
356,3349,33660928,22.745068996879564
357,3355,33660928,22.5215611574666
358,3357,33660928,22.995672888398232
359,3359,33660928,22.76426582194588
360,3361,33660928,21.844780435507758
361,3363,33660928,22.8423702750645
362,3365,33660928,22.1115690372996
363,3371,33660928,22.97909547052599
364,3372,33660928,15.459542674693527
365,3373,33660928,22.834436582933662
366,3374,33660928,16.120794389390262
367,3375,33660928,23.132718768598096
368,3377,33660928,22.215237675370805
369,3379,33660928,22.73966036017656
370,3381,33660928,22.845331326221118
371,3382,33660928,16.393894587144345
372,3387,33660928,23.343190924839217
373,3388,33660928,18.259230529720064
374,3389,33660928,21.821668851366507
375,3391,33660928,22.53893349456998
376,3394,33660928,15.646959292996343
377,3395,33660928,22.564059112719317
378,3396,33660928,16.89821740267603
379,3397,33660928,22.589271130217586
380,3403,33660928,22.723449872749487
381,3405,33660928,22.695504310408765
382,3407,33660928,22.666650505507587
383,3408,33660928,17.18869356253683
384,3409,33660928,22.27686882952378
385,3411,33660928,21.890695215265573
386,3413,33660928,23.362357103841635
387,3419,33660928,23.14289760890819
388,3420,33660928,17.09928180932439
389,3421,33660928,22.140424037286447
390,3423,33660928,23.055145895461564
391,3425,33660928,22.79929721038037
392,3427,33660928,21.684466851252267
393,3429,33660928,23.864840529691268
394,3430,33660928,15.570074272664911
395,3435,33660928,22.574227997440854
396,3438,33660928,14.627179296202645
397,3439,33660928,22.48880467882516
398,3442,33660928,18.470182123266135
399,3443,33660928,22.674956786738683
400,3446,33660928,17.93881359816247
401,3452,33660928,17.67803750833723
402,3454,33660928,19.29727300244907
403,3456,33660928,17.65519093410484
404,3458,33660928,19.38011146423472
405,3460,33660928,19.239389477727276
406,3462,33660928,18.934642408942125
407,3468,33660928,17.56908594209147
408,3469,33660928,23.532215385841493
409,3470,33660928,15.667708514182703
410,3471,33660928,23.34162079025088
411,3473,33660928,23.288925542528446
412,3476,33660928,16.889526674781713
413,3478,33660928,16.79247103428493
414,3483,33660928,24.289696069666064
415,3484,33660928,16.4274253331635
416,3485,33660928,23.444643332251445
417,3486,33660928,17.056315197690214
418,3488,33660928,17.405705149485343
419,3489,33660928,23.72594818356301
420,3490,33660928,19.05640449641754
421,3492,33660928,18.550636716793154
422,3494,33660928,24.717186929770907
423,3500,33660928,17.52430375871896
424,3502,33660928,16.574185654320075
425,3504,33660928,16.715884966497146
426,3505,33660928,24.36452258505814
427,3506,33660928,17.373220790722975
428,3508,33660928,16.68248204303724
429,3510,33660928,17.176352804602686
430,3515,33660928,23.882161879132347
431,3516,33660928,19.86579918980935
432,3518,33660928,24.741604367221143
433,3520,33660928,17.802790084658767
434,3522,33660928,17.622359990911594
435,3524,33660928,19.31534443026469
436,3525,33660928,24.126463334305726
437,3526,33660928,22.017155378225464
438,3532,33660928,24.84679927277505
439,3534,33660928,18.111460428948913
440,3535,33660928,24.06739829731069
441,3536,33660928,16.461351123752106
442,3538,33660928,16.87815322192856
443,3540,33660928,15.297675190136317
444,3541,33660928,23.417486940206356
445,3548,33660928,15.468863681065272
446,3550,33660928,18.25510122733157
447,3551,33660928,23.72862420774592
448,3552,33660928,18.31740698839331
449,3554,33660928,15.12370136770024
450,3556,33660928,16.3231645311196
451,3558,33660928,17.191221789247354
452,3563,33660928,23.209279042860828
453,3565,33660928,24.078967680277895
454,3566,33660928,17.491375628108063
455,3568,33660928,18.990018385847804
456,3570,33660928,17.42358910864183
457,3571,33660928,23.681097714548628
458,3572,33660928,16.26335275766388
459,3574,33660928,16.838436999919463
460,3579,33660928,23.53223183712733
461,3580,33660928,17.464368171521723
462,3582,33660928,16.850305234413522
463,3583,33660928,23.633197056533458
464,3585,33660928,24.369038130050047
465,3586,33660928,16.736097514166374
466,3587,33660928,23.666163030479012
467,3588,33660928,16.97292625653422
468,3590,33660928,17.292111500735125
469,3595,33660928,23.767779800344858
470,3597,33660928,23.6284358912083
471,3599,33660928,23.677349785566218
472,3602,33660928,16.697046251924
473,3604,33660928,16.534845760078436
474,3605,33660928,23.71097359532556
475,3612,33669120,17.332505552003507
476,3614,33669120,16.903687630565198
477,3616,33669120,16.913741681682797
478,3618,33669120,16.411176269023596
479,3619,33669120,24.531252846085863
480,3620,33669120,16.558138436933827
481,3622,33669120,16.010134151978043
482,3628,33669120,18.704910792410065
483,3630,33669120,17.299172526120277
484,3632,33669120,16.783429282690285
485,3634,33669120,16.57534644462572
486,3636,33669120,18.228867874881836
487,3638,33669120,19.111949452766368
488,3644,33669120,23.80582087684355
489,3646,33669120,17.354241436950193
490,3648,33669120,16.981166904469738
491,3650,33669120,16.31423382634263
492,3652,33669120,16.76070395800903
493,3654,33669120,16.542770345265044
494,3660,33669120,22.25919182543366
495,3662,33669120,17.287510050842116
496,3664,33669120,19.125845901980178
497,3666,33669120,19.09806234968462
498,3668,33669120,19.21280780812483
499,3670,33669120,17.40073646265359
500,3676,33669120,18.045039279937487
501,3678,33669120,17.268216726656526
502,3680,33669120,19.672609309413183
503,3682,33669120,17.345363613040426
504,3684,33669120,18.072615487675463
505,3686,33669120,16.579794871996896
506,3692,33669120,16.60621622381444
507,3694,33669120,16.846849776912258
508,3695,33669120,24.013368528185243
509,3698,33669120,16.703230847461832
510,3700,33669120,17.744666183906375
511,3701,33669120,23.860887461119628
512,3702,33669120,17.08872054060035
513,3708,33669120,18.173138891317794
514,3710,33669120,17.13325255847823
515,3711,33669120,23.76388233077055
516,3712,33669120,18.972034816594174
517,3714,33669120,16.943975723232775
518,3716,33669120,19.249352811496628
519,3718,33669120,16.87901087513968
520,3723,33669120,24.319192873502942
521,3724,33669120,16.52821774814697
522,3726,33669120,16.97513106031043
523,3728,33669120,16.912110482618044
524,3730,33669120,19.489677783849366
525,3732,33669120,16.15491466268357
526,3734,33669120,20.141466542875467
527,3739,33669120,24.330440148949254
528,3740,33669120,18.936523586346222
529,3742,33669120,18.679341063058153
530,3743,33669120,24.442352073443676
531,3744,33669120,17.0773486659843
532,3745,33669120,23.501156591454485
533,3746,33669120,16.623007297626753
534,3747,33669120,24.43440529660602
535,3748,33669120,19.905218649791426
536,3749,33669120,23.37636585558902
537,3750,33669120,20.250384779396153
538,3755,33669120,24.30458695198654
539,3756,33669120,18.32697107180474
540,3757,33669120,23.29973571720703
541,3758,33669120,16.6020237542856
542,3759,33669120,24.145626242901166
543,3760,33669120,16.86440155855787
544,3762,33669120,16.985553074051783
545,3763,33669120,24.45485031453667
546,3764,33669120,17.048018236337178
547,3765,33669120,23.505881860133904
548,3766,33669120,21.957252995642346
549,3771,33669120,24.226798115052596
550,3772,33669120,20.778674487107565
551,3773,33669120,23.09617575777947
552,3774,33669120,21.348686358866402
553,3776,33669120,20.682281265491383
554,3777,33669120,23.440928638712727
