idx,og Index,data (B),bandwidth (GB/s)
0,0,8192,2.4615384615384617
1,1,8192,2.462278328824767
2,2,8192,2.4150943396226414
3,3,8192,2.392523364485981
4,4,8192,2.4861911987860394
5,5,8192,2.4615384615384617
6,6,8192,2.4150943396226414
7,7,8192,2.438821077701697
8,8,8192,2.4380952380952383
9,9,8192,2.5098039215686274
10,10,8192,2.4380952380952383
11,11,8192,2.4854368932038833
12,12,8192,2.392523364485981
13,13,8192,2.462278328824767
14,14,8192,2.4380952380952383
15,15,8192,2.4854368932038833
16,16,8192,2.437369830407617
17,17,8192,2.392523364485981
18,18,8192,2.4150943396226414
19,19,8192,2.4380952380952383
20,20,8192,2.4150943396226414
21,21,8192,2.4607990387503755
22,22,8192,2.4615384615384617
23,23,8192,2.4615384615384617
24,24,8192,2.4380952380952383
25,25,8192,2.4854368932038833
26,26,8192,2.326611758023289
27,27,8192,2.4854368932038833
28,32,8192,2.4150943396226414
29,33,8192,2.4615384615384617
30,34,8192,2.4854368932038833
31,35,8192,2.4615384615384617
32,36,8192,2.392523364485981
33,37,8192,2.4380952380952383
34,38,8192,2.4158065467413743
35,39,8192,2.392523364485981
36,40,8192,2.4150943396226414
37,41,8192,2.4615384615384617
38,42,8192,2.4615384615384617
39,43,8192,2.4615384615384617
40,44,8192,2.327272727272727
41,45,8192,2.4380952380952383
42,46,8192,2.4380952380952383
43,47,8192,2.4150943396226414
44,48,8192,2.392523364485981
45,49,8192,2.4854368932038833
46,50,8192,2.4615384615384617
47,51,8192,2.4380952380952383
48,52,8192,2.392523364485981
49,53,8192,2.4854368932038833
50,54,8192,2.4380952380952383
51,55,8192,2.3932223196026876
52,56,8192,2.4854368932038833
53,57,8192,2.4854368932038833
54,58,8192,2.437369830407617
55,59,8192,2.4615384615384617
56,64,8192,2.3703703703703702
57,65,8192,2.4615384615384617
58,66,8192,2.4380952380952383
59,67,8192,2.4615384615384617
60,68,8192,2.4150943396226414
61,69,8192,2.4615384615384617
62,70,8192,2.4380952380952383
63,71,8192,2.3703703703703702
64,72,8192,2.4615384615384617
65,73,8192,2.4158065467413743
66,74,8192,2.4854368932038833
67,75,8192,2.3486238532110093
68,76,8192,2.4615384615384617
69,77,8192,2.4615384615384617
70,78,8192,2.5098039215686274
71,79,8192,2.2863522188110523
72,80,8192,2.392523364485981
73,81,8192,2.4615384615384617
74,82,8192,2.510573092246399
75,83,8192,2.4615384615384617
76,84,8192,2.3703703703703702
77,85,8192,2.392523364485981
78,86,8192,2.3918248175182484
79,87,8192,2.4380952380952383
80,88,8192,2.4150943396226414
81,89,8192,2.4380952380952383
82,90,8192,2.4150943396226414
83,91,8192,2.392523364485981
84,96,8192,2.4380952380952383
85,97,8192,2.4380952380952383
86,98,8192,2.4615384615384617
87,99,8192,2.4854368932038833
88,100,8192,2.4607990387503755
89,101,8192,2.4380952380952383
90,102,8192,2.4150943396226414
91,103,8192,2.4854368932038833
92,104,8192,2.4615384615384617
93,105,8192,2.3932223196026876
94,106,8192,2.4854368932038833
95,107,8192,2.4615384615384617
96,108,8192,2.438821077701697
97,109,8192,2.4150943396226414
98,110,8192,2.4150943396226414
99,111,8192,2.4854368932038833
100,112,8192,2.5090352220520673
101,113,8192,2.4380952380952383
102,114,8192,2.4854368932038833
103,115,8192,2.4854368932038833
104,116,8192,2.4615384615384617
105,117,8192,2.4150943396226414
106,118,8192,2.4854368932038833
107,119,8192,2.4150943396226414
108,120,8192,2.4380952380952383
109,121,8192,2.4150943396226414
110,122,8192,2.4854368932038833
111,123,8192,2.4380952380952383
112,128,8192,2.4854368932038833
113,129,8192,2.4380952380952383
114,130,8192,2.4150943396226414
115,131,8192,2.4854368932038833
116,132,8192,2.4854368932038833
117,133,8192,2.4615384615384617
118,134,8192,2.4150943396226414
119,135,8192,2.4380952380952383
120,136,8192,2.4380952380952383
121,137,8192,2.4380952380952383
122,138,8192,2.4150943396226414
123,139,8192,2.4854368932038833
124,140,8192,2.4150943396226414
125,141,8192,2.4380952380952383
126,142,8192,2.4150943396226414
127,143,8192,2.4380952380952383
128,144,8192,2.4150943396226414
129,145,8192,2.4150943396226414
130,146,8192,2.4150943396226414
131,147,8192,2.4380952380952383
132,148,8192,2.4615384615384617
133,149,8192,2.4380952380952383
134,150,8192,2.4150943396226414
135,151,8192,2.4615384615384617
136,152,8192,2.4150943396226414
137,153,8192,2.4150943396226414
138,154,8192,2.4150943396226414
139,155,8192,2.4380952380952383
140,160,8192,2.4854368932038833
141,161,8192,2.4615384615384617
142,162,8192,2.4380952380952383
143,163,8192,2.4380952380952383
144,164,8192,2.5098039215686274
145,165,8192,2.4380952380952383
146,166,8192,2.4380952380952383
147,167,8192,2.4615384615384617
148,168,8192,2.4615384615384617
149,169,8192,2.4150943396226414
150,170,8192,2.4854368932038833
151,171,8192,2.4380952380952383
152,172,8192,2.7243099434652476
153,173,8192,2.5098039215686274
154,174,8192,2.510573092246399
155,175,8192,2.4380952380952383
156,176,8192,2.752688172043011
157,177,8192,2.4150943396226414
158,178,8192,2.4615384615384617
159,179,8192,2.4150943396226414
160,180,8192,2.6675350048844026
161,181,8192,2.3063063063063063
162,182,8192,1.2864321608040201
163,183,8192,2.438821077701697
164,184,8192,0.9481481481481482
165,185,8192,2.4150943396226414
166,186,8192,2.5098039215686274
167,187,8192,2.4854368932038833
168,192,8192,2.4615384615384617
169,193,8192,2.327272727272727
170,194,8192,2.392523364485981
171,195,8192,2.4615384615384617
172,196,8192,2.56
173,197,8192,2.392523364485981
174,198,8192,2.392523364485981
175,199,8192,2.4854368932038833
176,200,8192,2.694736842105263
177,201,8192,1.1906976744186046
178,202,8192,2.4380952380952383
179,203,8192,2.3703703703703702
180,204,8192,2.4615384615384617
181,205,8192,2.4854368932038833
182,206,8192,2.4380952380952383
183,207,8192,2.5098039215686274
184,208,8192,2.392523364485981
185,209,8192,2.4615384615384617
186,210,8192,2.438821077701697
187,211,8192,2.4854368932038833
188,212,8192,2.4150943396226414
189,213,8192,2.4150943396226414
190,214,8192,2.4854368932038833
191,215,8192,2.392523364485981
192,216,8192,2.4854368932038833
193,217,8192,2.4615384615384617
194,218,8192,2.392523364485981
195,219,8192,2.4615384615384617
196,224,8192,2.371056439942113
197,225,8192,2.3486238532110093
198,226,8192,2.3486238532110093
199,227,8192,2.4150943396226414
200,228,8192,2.3703703703703702
201,229,8192,2.4854368932038833
202,230,8192,2.4150943396226414
203,231,8192,2.4380952380952383
204,232,8192,2.392523364485981
205,233,8192,2.4380952380952383
206,234,8192,2.4615384615384617
207,235,8192,2.4854368932038833
208,236,8192,2.4380952380952383
209,237,8192,2.4615384615384617
210,238,8192,2.4380952380952383
211,239,8192,2.4607990387503755
212,240,8192,2.4150943396226414
213,241,8192,2.4150943396226414
214,242,8192,2.4380952380952383
215,243,8192,2.4615384615384617
216,244,8192,2.4158065467413743
217,245,8192,2.4615384615384617
218,246,8192,2.4854368932038833
219,247,8192,2.4380952380952383
220,248,8192,2.4380952380952383
221,249,8192,2.4607990387503755
222,250,8192,2.4380952380952383
223,251,8192,2.4615384615384617
224,256,8192,2.4150943396226414
225,257,8192,2.4380952380952383
226,258,8192,2.4854368932038833
227,259,8192,2.4615384615384617
228,260,8192,2.4854368932038833
229,261,8192,2.3932223196026876
230,262,8192,2.3486238532110093
231,263,8192,2.4150943396226414
232,264,8192,2.4150943396226414
233,265,8192,2.392523364485981
234,266,8192,2.4615384615384617
235,267,8192,2.4854368932038833
236,268,8192,2.392523364485981
237,269,8192,2.4380952380952383
238,270,8192,2.5098039215686274
239,271,8192,2.4615384615384617
240,272,8192,2.4380952380952383
241,273,8192,2.4380952380952383
242,274,8192,2.4854368932038833
243,275,8192,2.3703703703703702
244,276,8192,2.437369830407617
245,277,8192,2.6666666666666665
246,278,8192,2.4861911987860394
247,279,8192,2.392523364485981
248,280,8192,2.3918248175182484
249,281,8192,2.4607990387503755
250,282,8192,2.4380952380952383
251,283,8192,2.4150943396226414
252,288,8192,2.462278328824767
253,289,8192,2.4380952380952383
254,290,8192,2.4615384615384617
255,291,8192,2.4150943396226414
256,292,8192,2.4854368932038833
257,293,8192,2.4861911987860394
258,294,8192,2.4854368932038833
259,295,8192,2.4380952380952383
260,296,8192,2.4615384615384617
261,297,8192,2.3932223196026876
262,298,8192,2.4380952380952383
263,299,8192,2.4150943396226414
264,300,8192,2.4615384615384617
265,301,8192,2.4380952380952383
266,302,8192,2.4150943396226414
267,303,8192,2.438821077701697
268,304,8192,2.4380952380952383
269,305,8192,2.4150943396226414
270,306,8192,2.4615384615384617
271,307,8192,2.4615384615384617
272,308,8192,2.438821077701697
273,309,8192,2.3703703703703702
274,310,8192,2.4380952380952383
275,311,8192,2.4854368932038833
276,312,8192,2.4615384615384617
277,313,8192,2.4854368932038833
278,314,8192,2.392523364485981
279,315,8192,2.4854368932038833
280,320,8192,2.4615384615384617
281,321,8192,2.3703703703703702
282,322,8192,2.4854368932038833
283,323,8192,2.4615384615384617
284,324,8192,2.4615384615384617
285,325,8192,2.4854368932038833
286,326,8192,2.4380952380952383
287,327,8192,2.4854368932038833
288,328,8192,2.4607990387503755
289,329,8192,2.4380952380952383
290,330,8192,2.349297390306854
291,331,8192,2.4150943396226414
292,332,8192,2.4380952380952383
293,333,8192,2.4615384615384617
294,334,8192,2.4854368932038833
295,335,8192,2.392523364485981
296,336,8192,2.4150943396226414
297,337,8192,2.4615384615384617
298,338,8192,2.3703703703703702
299,339,8192,2.392523364485981
300,340,8192,2.4380952380952383
301,341,8192,2.4380952380952383
302,342,8192,2.4150943396226414
303,343,8192,2.4615384615384617
304,344,8192,2.4380952380952383
305,345,8192,2.4615384615384617
306,346,8192,2.392523364485981
307,347,8192,2.4380952380952383
308,352,8192,2.4380952380952383
309,353,8192,2.438821077701697
310,354,8192,2.4150943396226414
311,355,8192,2.4615384615384617
312,356,8192,2.4380952380952383
313,357,8192,2.4615384615384617
314,358,8192,2.3063063063063063
315,359,8192,2.4380952380952383
316,360,8192,2.4380952380952383
317,361,8192,2.392523364485981
318,362,8192,2.4150943396226414
319,363,8192,2.4380952380952383
320,364,8192,2.4854368932038833
321,365,8192,2.4380952380952383
322,366,8192,2.3703703703703702
323,367,8192,2.4380952380952383
324,368,8192,2.3486238532110093
325,369,8192,2.3703703703703702
326,370,8192,2.4150943396226414
327,371,8192,2.4854368932038833
328,372,8192,2.4380952380952383
329,373,8192,2.4615384615384617
330,374,8192,2.392523364485981
331,375,8192,2.4854368932038833
332,376,8192,2.4380952380952383
333,377,8192,2.462278328824767
334,378,8192,2.3486238532110093
335,379,8192,2.4854368932038833
336,384,8192,2.392523364485981
337,385,8192,2.462278328824767
338,386,8192,2.4150943396226414
339,387,8192,2.4615384615384617
340,388,8192,2.4380952380952383
341,389,8192,2.4150943396226414
342,390,8192,2.4150943396226414
343,391,8192,2.4150943396226414
344,392,8192,2.4150943396226414
345,393,8192,2.4615384615384617
346,394,8192,2.4380952380952383
347,395,8192,2.4854368932038833
348,396,8192,2.392523364485981
349,397,8192,2.4150943396226414
350,398,8192,2.4854368932038833
351,399,8192,2.462278328824767
352,400,8192,2.4615384615384617
353,401,8192,1.673202614379085
354,402,8192,2.392523364485981
355,403,8192,2.3918248175182484
356,404,8192,2.4380952380952383
357,405,8192,2.4380952380952383
358,406,8192,2.4861911987860394
359,407,8192,2.4615384615384617
360,408,8192,2.4380952380952383
361,409,8192,2.392523364485981
362,410,8192,2.4380952380952383
363,411,8192,2.4380952380952383
364,416,8192,2.4615384615384617
365,417,8192,2.4143825523135867
366,418,8192,2.4854368932038833
367,419,8192,2.4615384615384617
368,420,8192,2.4615384615384617
369,421,8192,2.4615384615384617
370,422,8192,2.4615384615384617
371,423,8192,2.4854368932038833
372,424,8192,2.4380952380952383
373,425,8192,2.4380952380952383
374,426,8192,2.4615384615384617
375,427,8192,2.4380952380952383
376,428,8192,2.392523364485981
377,429,8192,2.4615384615384617
378,430,8192,2.392523364485981
379,431,8192,2.4380952380952383
380,432,8192,2.4150943396226414
381,433,8192,2.4150943396226414
382,434,8192,2.4380952380952383
383,435,8192,2.4607990387503755
384,436,8192,2.4615384615384617
385,437,8192,2.4615384615384617
386,438,8192,2.4150943396226414
387,439,8192,2.56
388,440,8192,2.4150943396226414
389,441,8192,2.4380952380952383
390,442,8192,2.4380952380952383
391,443,8192,2.4615384615384617
392,448,8192,2.4854368932038833
393,449,8192,2.4380952380952383
394,450,8192,2.392523364485981
395,451,8192,2.392523364485981
396,452,8192,2.4615384615384617
397,453,8192,2.4380952380952383
398,454,8192,2.4615384615384617
399,455,8192,2.392523364485981
400,456,8192,2.4150943396226414
401,457,8192,2.4615384615384617
402,458,8192,2.4150943396226414
403,459,8192,2.4854368932038833
404,460,8192,2.4380952380952383
405,461,8192,2.392523364485981
406,462,8192,2.4150943396226414
407,463,8192,2.4380952380952383
408,464,8192,2.4380952380952383
409,465,8192,2.3486238532110093
410,466,8192,2.5098039215686274
411,467,8192,2.4380952380952383
412,468,8192,2.392523364485981
413,469,8192,2.4150943396226414
414,470,8192,2.5098039215686274
415,471,8192,2.4615384615384617
416,472,8192,2.4615384615384617
417,473,8192,2.4380952380952383
418,474,8192,2.4615384615384617
419,475,8192,2.4380952380952383
420,480,8192,2.4380952380952383
421,481,8192,2.3703703703703702
422,482,8192,2.3703703703703702
423,483,8192,2.392523364485981
424,484,8192,2.5098039215686274
425,485,8192,2.4854368932038833
426,486,8192,2.4380952380952383
427,487,8192,2.3703703703703702
428,488,8192,2.4615384615384617
429,489,8192,2.4615384615384617
430,490,8192,2.5090352220520673
431,491,8192,2.5098039215686274
432,492,8192,2.3703703703703702
433,493,8192,2.4380952380952383
434,494,8192,2.4150943396226414
435,495,8192,2.4380952380952383
436,496,8192,2.4854368932038833
437,497,8192,2.4615384615384617
438,498,8192,2.4615384615384617
439,499,8192,2.392523364485981
440,500,8192,2.4854368932038833
441,501,8192,2.4615384615384617
442,502,8192,2.4380952380952383
443,503,8192,2.4380952380952383
444,504,8192,2.4380952380952383
445,505,8192,2.4150943396226414
446,506,8192,2.4150943396226414
447,507,8192,2.4854368932038833
448,512,8192,2.6666666666666665
449,513,8192,2.4150943396226414
450,514,8192,2.4854368932038833
451,515,8192,2.4854368932038833
452,516,8192,2.4854368932038833
453,517,8192,2.4615384615384617
454,518,8192,2.4607990387503755
455,519,8192,2.4380952380952383
456,520,8192,2.6666666666666665
457,521,8192,2.3703703703703702
458,522,8192,2.5098039215686274
459,523,8192,2.3932223196026876
460,524,8192,0.7272727272727273
461,525,8192,2.4150943396226414
462,526,8192,2.4854368932038833
463,527,8192,2.3486238532110093
464,528,8192,2.437369830407617
465,529,8192,2.4150943396226414
466,530,8192,2.4615384615384617
467,531,8192,2.3486238532110093
468,532,8192,2.462278328824767
469,533,8192,2.4615384615384617
470,534,8192,2.4380952380952383
471,535,8192,2.3918248175182484
472,536,8192,2.4615384615384617
473,537,8192,2.4150943396226414
474,538,8192,2.4854368932038833
475,539,8192,2.4150943396226414
476,544,8192,2.4615384615384617
477,545,8192,2.3703703703703702
478,546,8192,2.4380952380952383
479,547,8192,2.4615384615384617
480,548,8192,2.4615384615384617
481,549,8192,2.4615384615384617
482,550,8192,2.4854368932038833
483,551,8192,2.392523364485981
484,552,8192,2.4615384615384617
485,553,8192,2.4615384615384617
486,554,8192,2.4615384615384617
487,555,8192,2.5098039215686274
488,556,8192,2.4380952380952383
489,557,8192,2.4380952380952383
490,558,8192,2.4380952380952383
491,559,8192,2.4380952380952383
492,560,8192,2.462278328824767
493,561,8192,2.4615384615384617
494,562,8192,2.5098039215686274
495,563,8192,2.4615384615384617
496,564,8192,2.4615384615384617
497,565,8192,2.4854368932038833
498,566,8192,2.4380952380952383
499,567,8192,2.4380952380952383
500,568,8192,2.4150943396226414
501,569,8192,2.4854368932038833
502,570,8192,2.4380952380952383
503,571,8192,2.4854368932038833
504,576,8192,2.4615384615384617
505,577,8192,2.4380952380952383
506,578,8192,2.4380952380952383
507,579,8192,2.4854368932038833
508,580,8192,2.4380952380952383
509,581,8192,2.5098039215686274
510,582,8192,2.5098039215686274
511,583,8192,2.3703703703703702
512,584,8192,2.4615384615384617
513,585,8192,2.392523364485981
514,586,8192,2.4158065467413743
515,587,8192,2.4150943396226414
516,588,8192,2.4615384615384617
517,589,8192,2.4380952380952383
518,590,8192,2.4150943396226414
519,591,8192,2.4854368932038833
520,592,8192,2.392523364485981
521,593,8192,2.4854368932038833
522,594,8192,2.392523364485981
523,595,8192,2.4143825523135867
524,596,8192,2.4615384615384617
525,597,8192,2.4861911987860394
526,598,8192,2.4380952380952383
527,599,8192,2.3703703703703702
528,600,8192,2.4380952380952383
529,601,8192,2.462278328824767
530,602,8192,2.4143825523135867
531,603,8192,2.4150943396226414
532,608,8192,2.4158065467413743
533,609,8192,2.4380952380952383
534,610,8192,2.4150943396226414
535,611,8192,2.4854368932038833
536,612,8192,2.4150943396226414
537,613,8192,2.4380952380952383
538,614,8192,2.3486238532110093
539,615,8192,2.4854368932038833
540,616,8192,2.4380952380952383
541,617,8192,2.4615384615384617
542,618,8192,2.462278328824767
543,619,8192,2.4380952380952383
544,620,8192,2.4380952380952383
545,621,8192,2.4607990387503755
546,622,8192,2.4854368932038833
547,623,8192,2.5098039215686274
548,624,8192,2.4380952380952383
549,625,8192,2.4150943396226414
550,626,8192,2.4380952380952383
551,627,8192,2.4615384615384617
552,628,8192,2.4854368932038833
553,629,8192,2.4380952380952383
554,630,8192,2.4150943396226414
555,631,8192,2.4380952380952383
556,632,8192,2.4150943396226414
557,633,8192,2.4615384615384617
558,634,8192,2.392523364485981
559,635,8192,2.4615384615384617
560,640,8192,2.462278328824767
561,641,8192,2.4380952380952383
562,642,8192,2.510573092246399
563,643,8192,2.4615384615384617
564,644,8192,2.4615384615384617
565,645,8192,2.4380952380952383
566,646,8192,2.4150943396226414
567,647,8192,2.4150943396226414
568,648,8192,2.4615384615384617
569,649,8192,2.4380952380952383
570,650,8192,2.4150943396226414
571,651,8192,2.4615384615384617
572,652,8192,2.4615384615384617
573,653,8192,2.3703703703703702
574,654,8192,2.392523364485981
575,655,8192,2.3703703703703702
576,656,8192,2.4380952380952383
577,657,8192,2.4854368932038833
578,658,8192,2.4380952380952383
579,659,8192,2.462278328824767
580,660,8192,2.4380952380952383
581,661,8192,2.4607990387503755
582,662,8192,2.4150943396226414
583,663,8192,2.4150943396226414
584,664,8192,2.3703703703703702
585,665,8192,2.4150943396226414
586,666,8192,2.4150943396226414
587,667,8192,2.4615384615384617
588,672,8192,2.4380952380952383
589,673,8192,2.4158065467413743
590,674,8192,2.4380952380952383
591,675,8192,2.4150943396226414
592,676,8192,2.4380952380952383
593,677,8192,2.4615384615384617
594,678,8192,2.4615384615384617
595,679,8192,2.4380952380952383
596,680,8192,2.510573092246399
597,681,8192,2.4854368932038833
598,682,8192,2.3063063063063063
599,683,8192,2.4150943396226414
600,684,8192,2.4380952380952383
601,685,8192,2.4380952380952383
602,686,8192,2.4380952380952383
603,687,8192,2.4380952380952383
604,688,8192,2.4150943396226414
605,689,8192,2.4380952380952383
606,690,8192,2.438821077701697
607,691,8192,2.4615384615384617
608,692,8192,2.4380952380952383
609,693,8192,2.4615384615384617
610,694,8192,2.4854368932038833
611,695,8192,2.3932223196026876
612,696,8192,2.392523364485981
613,697,8192,2.3932223196026876
614,698,8192,2.4150943396226414
615,699,8192,2.392523364485981
616,704,8192,2.4143825523135867
617,705,8192,2.392523364485981
618,706,8192,2.4607990387503755
619,707,8192,2.4380952380952383
620,708,8192,2.4150943396226414
621,709,8192,2.4380952380952383
622,710,8192,2.438821077701697
623,711,8192,2.4380952380952383
624,712,8192,2.3918248175182484
625,713,8192,2.4615384615384617
626,714,8192,2.438821077701697
627,715,8192,2.4380952380952383
628,716,8192,2.4150943396226414
629,717,8192,2.4380952380952383
630,718,8192,2.392523364485981
631,719,8192,2.4854368932038833
632,720,8192,2.4150943396226414
