idx,og Index,data (B),bandwidth (GB/s)
0,0,8192,0.735632183908046
1,1,8192,0.7377521613832853
2,2,8192,1.2190476190476192
3,3,8192,2.4380952380952383
4,4,8192,0.8025078369905956
5,5,8192,1.062240663900415
6,6,8192,2.4615384615384617
7,7,8192,1.5515151515151515
8,8,8192,1.0491803278688525
9,9,8192,0.9922480620155039
10,10,8192,2.3703703703703702
11,11,8192,2.3486238532110093
12,12,8192,1.062240663900415
13,13,8192,1.003921568627451
14,14,8192,0.9808429118773946
15,15,8192,1.0666666666666667
16,16,8192,2.4615384615384617
17,17,8192,2.371056439942113
18,18,8192,1.0448979591836736
19,19,8192,0.9770992366412213
20,20,8192,1.1277533039647578
21,21,8192,2.5098039215686274
22,22,8192,1.2075471698113207
23,23,8192,1.9692307692307693
24,24,8192,1.0281124497991967
25,25,8192,1.1636363636363636
26,26,8192,1.0364372469635628
27,27,8192,2.4380952380952383
28,32,8192,1.2369017061754493
29,33,8192,2.4150943396226414
30,34,8192,1.0987124463519313
31,35,8192,2.4615384615384617
32,36,8192,1.147982062780269
33,37,8192,1.8823529411764706
34,38,8192,2.4150943396226414
35,39,8192,2.327272727272727
36,40,8192,1.0406504065040652
37,41,8192,1.0987124463519313
38,42,8192,1.2248803827751196
39,43,8192,1.1689497716894977
40,44,8192,2.392523364485981
41,45,8192,2.4607990387503755
42,46,8192,2.3486238532110093
43,47,8192,2.56
44,48,8192,0.7485380116959064
45,49,8192,1.0711297071129706
46,50,8192,2.048
47,51,8192,2.4854368932038833
48,52,8192,1.8285714285714285
49,53,8192,1.0158730158730158
50,54,8192,2.4150943396226414
51,55,8192,2.4380952380952383
52,56,8192,1.2549019607843137
53,57,8192,2.392523364485981
54,58,8192,2.3486238532110093
55,59,8192,2.4150943396226414
56,64,8192,2.392523364485981
57,65,8192,2.349297390306854
58,66,8192,0.9772157938685435
59,67,8192,0.9884169884169884
60,68,8192,2.4380952380952383
61,69,8192,2.462278328824767
62,70,8192,1.0534979423868314
63,71,8192,2.4380952380952383
64,72,8192,0.9660377358490566
65,73,8192,0.9846153846153847
66,74,8192,2.4150943396226414
67,75,8192,1.7414965986394557
68,76,8192,2.4150943396226414
69,77,8192,2.462278328824767
70,78,8192,0.8561872909698997
71,79,8192,0.9846153846153847
72,80,8192,1.2077251953412944
73,81,8192,1.532934131736527
74,82,8192,0.8258064516129032
75,83,8192,2.4150943396226414
76,84,8192,1.0711297071129706
77,85,8192,2.5098039215686274
78,86,8192,1.4970760233918128
79,87,8192,1.003921568627451
80,88,8192,1.1082251082251082
81,89,8192,1.0491803278688525
82,90,8192,2.4615384615384617
83,91,8192,2.327272727272727
84,96,8192,1.3915406828605401
85,97,8192,2.206896551724138
86,98,8192,0.8366013071895425
87,99,8192,1.471264367816092
88,100,8192,1.2018779342723005
89,101,8192,1.1851851851851851
90,102,8192,1.292929292929293
91,103,8192,2.3486238532110093
92,104,8192,0.8231511254019293
93,105,8192,0.8205128205128205
94,106,8192,0.9661516688288714
95,107,8192,1
96,108,8192,2.4150943396226414
97,109,8192,1.1179039301310043
98,110,8192,1.0199203187250996
99,111,8192,0.8284789644012945
100,112,8192,2.5098039215686274
101,113,8192,2.4854368932038833
102,114,8192,1.6
103,115,8192,1.0847457627118644
104,116,8192,2.4158065467413743
105,117,8192,2.4380952380952383
106,118,8192,1.3544973544973544
107,119,8192,1.0534979423868314
108,120,8192,2.4380952380952383
109,121,8192,1.4797687861271676
110,122,8192,1.3333333333333333
111,123,8192,2.4854368932038833
112,128,8192,1.4222222222222223
113,129,8192,0.8448844884488449
114,130,8192,1.1851851851851851
115,131,8192,2.4380952380952383
116,132,8192,2.4380952380952383
117,133,8192,1.5238095238095237
118,134,8192,2.4615384615384617
119,135,8192,2.371056439942113
120,136,8192,0.9660377358490566
121,137,8192,2.4854368932038833
122,138,8192,2.4615384615384617
123,139,8192,2.3918248175182484
124,140,8192,2.4854368932038833
125,141,8192,2.3486238532110093
126,142,8192,1
127,143,8192,1.0364372469635628
128,144,8192,1.0241280160020003
129,145,8192,1.080168776371308
130,146,8192,0.9078014184397163
131,147,8192,1.3264248704663213
132,148,8192,2.4615384615384617
133,149,8192,2.4150943396226414
134,150,8192,1.0847457627118644
135,151,8192,2.4150943396226414
136,152,8192,1.0159990078134689
137,153,8192,1.0666666666666667
138,154,8192,1.0756302521008403
139,155,8192,1.0666666666666667
140,160,8192,2.4380952380952383
141,161,8192,1.1636363636363636
142,162,8192,2.4150943396226414
143,163,8192,2.4615384615384617
144,164,8192,2.392523364485981
145,165,8192,2.4380952380952383
146,166,8192,1.0847457627118644
147,167,8192,0.973384030418251
148,168,8192,2.327272727272727
149,169,8192,2.327272727272727
150,170,8192,1.1179039301310043
151,171,8192,1.1327433628318584
152,172,8192,1.1177513985536909
153,173,8192,0.9378362907842015
154,174,8192,0.9846153846153847
155,175,8192,1.3061224489795917
156,176,8192,1.1131947275445033
157,177,8192,1.147982062780269
158,178,8192,1.4222222222222223
159,179,8192,2.392523364485981
160,180,8192,2.4150943396226414
161,181,8192,2.4150943396226414
162,182,8192,2.4380952380952383
163,183,8192,2.4380952380952383
164,184,8192,1.0848894186200504
165,185,8192,1.1851851851851851
166,186,8192,2.3703703703703702
167,187,8192,2.4150943396226414
168,192,8192,2.5098039215686274
169,193,8192,2.3486238532110093
170,194,8192,0.9660377358490566
171,195,8192,1.0756302521008403
172,196,8192,0.8421052631578947
173,197,8192,1.4797687861271676
174,198,8192,2.4150943396226414
175,199,8192,2.4150943396226414
176,200,8192,1.0157470551766894
177,201,8192,1.4068349647947793
178,202,8192,2.3703703703703702
179,203,8192,2.4615384615384617
180,204,8192,1.4143646408839778
181,205,8192,2.3703703703703702
182,206,8192,2.2063021815243737
183,207,8192,2.3486238532110093
184,208,8192,2.4380952380952383
185,209,8192,1.533221036870672
186,210,8192,2.4380952380952383
187,211,8192,1.1277533039647578
188,212,8192,1.147982062780269
189,213,8192,0.8311688311688312
190,214,8192,1.1377777777777778
191,215,8192,1.1636363636363636
192,216,8192,2.4615384615384617
193,217,8192,2.327272727272727
194,218,8192,2.4615384615384617
195,219,8192,2.4150943396226414
196,224,8192,1.1179039301310043
197,225,8192,0.8561872909698997
198,226,8192,2.4615384615384617
199,227,8192,2.4380952380952383
200,228,8192,1.1531531531531531
201,229,8192,0.8561872909698997
202,230,8192,0.7664670658682635
203,231,8192,2.3932223196026876
204,232,8192,1.0078740157480315
205,233,8192,0.9961089494163424
206,234,8192,2.4150943396226414
207,235,8192,2.3063063063063063
208,236,8192,2.4854368932038833
209,237,8192,1.4545454545454546
210,238,8192,2.4380952380952383
211,239,8192,2.437369830407617
212,240,8192,1.080168776371308
213,241,8192,1.0578512396694215
214,242,8192,2.4150943396226414
215,243,8192,2.4143825523135867
216,244,8192,2.4615384615384617
217,245,8192,2.4150943396226414
218,246,8192,0.7757575757575758
219,247,8192,0.973384030418251
220,248,8192,2.3703703703703702
221,249,8192,0.9624060150375939
222,250,8192,2.4380952380952383
223,251,8192,2.1327779224160377
224,256,8192,2.245614035087719
225,257,8192,1.841726618705036
226,258,8192,2.4615384615384617
227,259,8192,2.5098039215686274
228,260,8192,1.10359692846558
229,261,8192,1.248780487804878
230,262,8192,2.3486238532110093
231,263,8192,1.0491803278688525
232,264,8192,1.1277533039647578
233,265,8192,1.1377777777777778
234,266,8192,2.0813008130081303
235,267,8192,2.4615384615384617
236,268,8192,2.3063063063063063
237,269,8192,1.1428571428571428
238,270,8192,1.6305732484076434
239,271,8192,2.4615384615384617
240,272,8192,2.4854368932038833
241,273,8192,2.4380952380952383
242,274,8192,1.0847457627118644
243,275,8192,1.0893617021276596
244,276,8192,2.4615384615384617
245,277,8192,2.4854368932038833
246,278,8192,2.4854368932038833
247,279,8192,2.438821077701697
248,280,8192,2.4150943396226414
249,281,8192,2.4380952380952383
250,282,8192,2.392523364485981
251,283,8192,0.9884169884169884
252,288,8192,2.4380952380952383
253,289,8192,2.4854368932038833
254,290,8192,0.9624060150375939
255,291,8192,0.8982456140350877
256,292,8192,2.265486725663717
257,293,8192,1.0711297071129706
258,294,8192,1.0406504065040652
259,295,8192,0.9446494464944649
260,296,8192,2.265486725663717
261,297,8192,1.1531531531531531
262,298,8192,2.4150943396226414
263,299,8192,1.0364372469635628
264,300,8192,2.4854368932038833
265,301,8192,2.3703703703703702
266,302,8192,2.4150943396226414
267,303,8192,2.4854368932038833
268,304,8192,2.4380952380952383
269,305,8192,2.4380952380952383
270,306,8192,2.4380952380952383
271,307,8192,2.3486238532110093
272,308,8192,2.3703703703703702
273,309,8192,2.4615384615384617
274,310,8192,2.4380952380952383
275,311,8192,1.0365683917499684
276,312,8192,0.89198606271777
277,313,8192,0.7925696594427245
278,314,8192,2.4380952380952383
279,315,8192,2.4380952380952383
280,320,8192,2.4380952380952383
281,321,8192,0.920863309352518
282,322,8192,1.2075471698113207
283,323,8192,1.7777777777777777
284,324,8192,2.4380952380952383
285,325,8192,2.4615384615384617
286,326,8192,2.4607990387503755
287,327,8192,1.4970760233918128
288,328,8192,2.4380952380952383
289,329,8192,2.4615384615384617
290,330,8192,0.9175627240143369
291,331,8192,1.1228070175438596
292,332,8192,2.4380952380952383
293,333,8192,2.206896551724138
294,334,8192,2.392523364485981
295,335,8192,2.392523364485981
296,336,8192,2.4380952380952383
297,337,8192,1.0847457627118644
298,338,8192,1.4800361336946704
299,339,8192,0.973384030418251
300,340,8192,1.0448979591836736
301,341,8192,1.0364372469635628
302,342,8192,2.4615384615384617
303,343,8192,2.4854368932038833
304,345,8192,1.0666666666666667
305,346,8192,1.0711297071129706
306,347,8192,2.4854368932038833
307,352,8192,1.248780487804878
308,353,8192,1.103448275862069
309,354,8192,2.392523364485981
310,355,8192,1.0448979591836736
311,356,8192,1.2610837438423645
312,357,8192,2.4380952380952383
313,358,8192,2.4150943396226414
314,359,8192,1.0893617021276596
315,360,8192,1.3266396761133603
316,361,8192,1.0448979591836736
317,362,8192,2.4380952380952383
318,363,8192,2.3703703703703702
319,364,8192,2.3486238532110093
320,365,8192,2.4150943396226414
321,366,8192,1.6305732484076434
322,367,8192,2.349297390306854
323,368,8192,1.1851851851851851
324,369,8192,1.0281124497991967
325,370,8192,2.4150943396226414
326,371,8192,2.3703703703703702
327,372,8192,2.4615384615384617
328,373,8192,1.4463276836158192
329,374,8192,1.6516129032258065
330,375,8192,2.392523364485981
331,376,8192,1.1327433628318584
332,377,8192,0.8707482993197279
333,378,8192,1.1636363636363636
334,379,8192,0.9516728624535316
335,384,8192,2.392523364485981
336,385,8192,1.147982062780269
337,386,8192,2.4615384615384617
338,387,8192,1.8823529411764706
339,388,8192,2.4615384615384617
340,389,8192,1.0282414961717083
341,390,8192,2.462278328824767
342,391,8192,2.098360655737705
343,392,8192,2.462278328824767
344,393,8192,2.392523364485981
345,394,8192,2.4615384615384617
346,395,8192,2.327272727272727
347,396,8192,2.4615384615384617
348,397,8192,1.0578512396694215
349,398,8192,1.0406504065040652
350,399,8192,1.0987124463519313
351,400,8192,2.4615384615384617
352,401,8192,2.462278328824767
353,402,8192,2.4380952380952383
354,403,8192,2.3703703703703702
355,404,8192,1.0364372469635628
356,405,8192,1.0893617021276596
357,406,8192,2.4150943396226414
358,407,8192,0.9734997029114676
359,408,8192,2.4380952380952383
360,409,8192,2.115702479338843
361,410,8192,1.0940170940170941
362,411,8192,2.392523364485981
363,416,8192,2.4150943396226414
364,417,8192,2.4615384615384617
365,418,8192,2.4150943396226414
366,419,8192,0.9660377358490566
367,420,8192,2.4380952380952383
368,421,8192,2.4615384615384617
369,422,8192,2.4150943396226414
370,423,8192,2.4380952380952383
371,425,8192,1.1082251082251082
372,426,8192,2.4380952380952383
373,427,8192,1.032258064516129
374,428,8192,2.4615384615384617
375,429,8192,2.462278328824767
376,430,8192,2.4854368932038833
377,431,8192,2.5346534653465347
378,432,8192,2.5098039215686274
379,433,8192,2.4380952380952383
380,438,8192,2.4854368932038833
381,439,8192,2.4615384615384617
382,440,8192,2.4861911987860394
383,441,8192,2.5098039215686274
384,442,8192,2.4615384615384617
385,443,8192,2.4854368932038833
386,444,8192,2.4854368932038833
387,445,8192,2.4615384615384617
388,446,8192,2.510573092246399
389,447,8192,2.5346534653465347
390,448,8192,2.4380952380952383
391,449,8192,2.4615384615384617
392,450,8192,2.4854368932038833
393,451,8192,2.392523364485981
394,452,8192,2.4150943396226414
395,453,8192,2.5098039215686274
396,454,8192,2.4615384615384617
397,455,8192,2.4615384615384617
398,456,8192,1.0847457627118644
399,457,8192,1.3195876288659794
400,458,8192,2.4615384615384617
401,459,8192,1.1228070175438596
402,460,8192,2.4854368932038833
403,461,8192,2.4158065467413743
404,462,8192,2.4380952380952383
405,463,8192,2.5098039215686274
406,464,8192,2.4380952380952383
407,465,8192,2.392523364485981
408,470,8192,2.5346534653465347
409,471,8192,2.4615384615384617
410,472,8192,2.533869471079493
411,473,8192,1.3989071038251366
412,474,8192,2.4615384615384617
413,475,8192,1.1377777777777778
414,476,8192,2.3932223196026876
415,477,8192,2.4615384615384617
416,478,8192,2.3932223196026876
417,479,8192,2.4854368932038833
418,480,8192,2.462278328824767
419,481,8192,2.4615384615384617
420,482,8192,2.4615384615384617
421,483,8192,2.4150943396226414
422,484,8192,2.4380952380952383
423,485,8192,0.839344262295082
424,486,8192,2.4615384615384617
425,487,8192,2.4854368932038833
426,488,8192,2.4615384615384617
427,489,8192,2.4615384615384617
428,490,8192,2.392523364485981
429,491,8192,2.3703703703703702
430,492,8192,2.4380952380952383
431,493,8192,2.4615384615384617
432,494,8192,2.4380952380952383
433,495,8192,2.392523364485981
434,496,8192,2.437369830407617
435,497,8192,2.4150943396226414
436,502,8192,2.533869471079493
437,503,8192,1.0987124463519313
438,504,8192,2.4854368932038833
439,505,8192,2.4615384615384617
440,506,8192,1.024
441,507,8192,1.2132701421800949
442,508,8192,2.4615384615384617
443,509,8192,2.4854368932038833
444,510,8192,2.4615384615384617
445,511,8192,2.4150943396226414
446,512,8192,2.4615384615384617
447,513,8192,2.4615384615384617
448,514,8192,2.4380952380952383
449,515,8192,2.4380952380952383
450,516,8192,2.4854368932038833
451,517,8192,2.3703703703703702
452,518,8192,2.4854368932038833
453,519,8192,1.003921568627451
454,520,8192,2.3703703703703702
455,521,8192,1.0756302521008403
456,522,8192,2.4380952380952383
457,523,8192,2.4854368932038833
458,524,8192,2.4150943396226414
459,525,8192,2.4615384615384617
460,526,8192,2.4615384615384617
461,528,8192,2.4615384615384617
462,529,8192,2.4615384615384617
463,534,8192,2.4380952380952383
464,535,8192,2.4380952380952383
465,536,8192,2.4380952380952383
466,537,8192,2.4854368932038833
467,538,8192,2.4615384615384617
468,539,8192,2.4854368932038833
469,540,8192,2.4615384615384617
470,541,8192,2.4150943396226414
471,542,8192,2.4380952380952383
472,543,8192,2.4380952380952383
473,544,8192,2.4380952380952383
474,546,8192,2.4380952380952383
475,547,8192,2.4615384615384617
476,548,8192,2.4150943396226414
477,549,8192,2.265486725663717
478,550,8192,2.4150943396226414
479,551,8192,2.4615384615384617
480,552,8192,2.3486238532110093
481,553,8192,2.4854368932038833
482,555,8192,1.0078740157480315
483,556,8192,2.4380952380952383
484,557,8192,1.0847457627118644
485,558,8192,2.4150943396226414
486,559,8192,2.5346534653465347
487,560,8192,2.4150943396226414
488,561,8192,2.3703703703703702
489,566,8192,2.4615384615384617
490,567,8192,2.4854368932038833
491,568,8192,2.462278328824767
492,569,8192,1.0365683917499684
493,571,8192,1.0711297071129706
494,572,8192,2.4615384615384617
495,573,8192,2.462278328824767
496,574,8192,2.4854368932038833
497,575,8192,2.752688172043011
498,576,8192,1.2365283018867925
499,577,8192,0.8025078369905956
500,578,8192,2.3703703703703702
501,579,8192,2.4615384615384617
502,580,8192,2.3932223196026876
503,581,8192,2.4615384615384617
504,582,8192,1.0709896718525298
505,583,8192,1.0847457627118644
506,584,8192,2.4615384615384617
507,585,8192,1.10359692846558
508,586,8192,2.4615384615384617
509,587,8192,2.4150943396226414
510,588,8192,2.4854368932038833
511,589,8192,2.226086956521739
512,590,8192,2.4380952380952383
513,591,8192,2.6122448979591835
514,592,8192,2.4615384615384617
515,593,8192,2.4615384615384617
516,598,8192,2.392523364485981
517,599,8192,2.392523364485981
518,600,8192,2.5346534653465347
519,601,8192,2.4854368932038833
520,602,8192,2.4380952380952383
521,603,8192,2.5098039215686274
522,604,8192,2.4615384615384617
523,605,8192,2.4854368932038833
524,606,8192,2.4380952380952383
525,607,8192,2.56
526,608,8192,2.4380952380952383
527,609,8192,1.0448979591836736
528,610,8192,2.4380952380952383
529,611,8192,1.0756302521008403
530,612,8192,2.3703703703703702
531,613,8192,2.5090352220520673
532,614,8192,2.4380952380952383
533,615,8192,2.4150943396226414
534,616,8192,2.4380952380952383
535,617,8192,2.4854368932038833
536,619,8192,0.7619047619047619
537,620,8192,0.8951048951048951
538,621,8192,1.080168776371308
539,622,8192,2.4615384615384617
540,623,8192,2.4615384615384617
541,624,8192,2.510573092246399
542,625,8192,1.1689497716894977
543,630,8192,1.3989071038251366
544,631,8192,1.045031253986478
545,632,8192,2.4854368932038833
546,633,8192,2.4615384615384617
547,634,8192,2.4854368932038833
548,635,8192,2.5098039215686274
549,636,8192,0.9343065693430657
550,637,8192,2.4615384615384617
551,638,8192,2.4150943396226414
552,639,8192,2.56
553,640,8192,2.4854368932038833
554,641,8192,1.0491803278688525
555,642,8192,2.4380952380952383
556,643,8192,2.4854368932038833
557,644,8192,2.4854368932038833
558,645,8192,2.5346534653465347
559,646,8192,2.3703703703703702
560,647,8192,2.4380952380952383
561,648,8192,2.4615384615384617
562,649,8192,2.4380952380952383
563,650,8192,2.4150943396226414
564,651,8192,2.5098039215686274
565,652,8192,2.4854368932038833
566,653,8192,2.392523364485981
567,654,8192,2.3932223196026876
568,655,8192,2.4854368932038833
569,656,8192,2.4615384615384617
570,657,8192,2.4380952380952383
571,662,8192,2.4380952380952383
572,663,8192,1.3544973544973544
573,664,8192,2.5098039215686274
574,665,8192,1.2427184466019416
575,666,8192,2.4854368932038833
576,667,8192,2.4854368932038833
577,668,8192,2.4615384615384617
578,669,8192,2.5098039215686274
579,671,8192,2.4861911987860394
580,672,8192,2.4615384615384617
581,673,8192,2.4615384615384617
582,674,8192,2.392523364485981
583,675,8192,2.4854368932038833
584,676,8192,2.4615384615384617
585,678,8192,2.4615384615384617
586,679,8192,2.4854368932038833
587,680,8192,2.4854368932038833
588,681,8192,1.062240663900415
589,682,8192,2.4615384615384617
590,683,8192,2.4380952380952383
591,684,8192,2.4150943396226414
592,685,8192,1.1428571428571428
593,686,8192,2.4615384615384617
594,687,8192,2.4854368932038833
595,689,8192,1.6842105263157894
596,694,8192,1.2427184466019416
597,695,8192,0.8311688311688312
598,696,8192,2.4854368932038833
599,697,8192,1.2864321608040201
600,698,8192,2.4150943396226414
601,699,8192,2.4615384615384617
602,700,8192,2.4150943396226414
603,701,8192,2.5098039215686274
604,702,8192,2.4380952380952383
605,703,8192,2.4380952380952383
606,704,8192,2.4150943396226414
607,705,8192,2.4854368932038833
608,706,8192,2.4615384615384617
609,707,8192,2.4150943396226414
610,708,8192,2.4854368932038833
611,709,8192,2.392523364485981
612,710,8192,1.1377777777777778
613,711,8192,1.1130434782608696
614,712,8192,2.4854368932038833
615,713,8192,2.4615384615384617
616,714,8192,2.4150943396226414
617,715,8192,2.4607990387503755
618,716,8192,2.4380952380952383
619,717,8192,1.3403141361256545
620,718,8192,2.4380952380952383
621,719,8192,2.4615384615384617
622,720,8192,2.392523364485981
623,721,8192,2.4854368932038833
624,726,8192,1.0987124463519313
625,727,8192,2
626,728,8192,2.5098039215686274
627,729,8192,2.4861911987860394
628,730,8192,2.4854368932038833
629,731,8192,2.4854368932038833
630,733,8192,1.1228070175438596
631,734,8192,2.4607990387503755
632,735,8192,0.9516728624535316
633,736,8192,2.4615384615384617
634,737,8192,2.510573092246399
635,738,8192,2.4854368932038833
636,739,8192,2.4854368932038833
