idx,og Index,data (B),bandwidth (GB/s)
0,5,16785408,12.316238990129639
1,7,16785408,12.314793239757364
2,9,16785408,12.308156182562513
3,11,16785408,12.31711564158615
4,13,16785408,12.319131509495445
5,15,16785408,12.224684012162482
6,21,16785408,12.309880226346683
7,23,16785408,12.31971017641308
8,25,16785408,12.32000857278537
9,27,16785408,11.72909079220623
10,29,16785408,12.321157081575308
11,31,16785408,12.317395834862117
12,37,16785408,12.318552896936179
13,39,16785408,11.728033616052308
14,41,16785408,12.233228094417672
15,43,16785408,11.986657535557411
16,45,16785408,12.320867673354101
17,47,16785408,11.76116688119093
18,53,16785408,12.322025387820542
19,55,16785408,12.320578278728233
20,57,16785408,12.283072383846012
21,59,16785408,12.322604326644957
22,61,16785408,12.321735938807569
23,63,16785408,12.320288897696745
24,69,16785408,12.324631041015023
25,71,16785408,12.326079102351335
26,73,16785408,12.324350518476532
27,75,16785408,12.327817225181185
28,77,16785408,12.326658422167323
29,79,16785408,12.322893816458317
30,85,16785408,12.188316346832494
31,87,16785408,12.323183319873724
32,89,16785408,12.321735938807569
33,91,16785408,12.316537218371996
34,93,16785408,12.324051911741815
35,95,16785408,12.319131509495445
36,101,16785408,12.248367653712
37,103,16785408,12.247232674253418
38,105,16785408,12.134743343946006
39,107,16785408,12.06968536889124
40,109,16785408,12.327246849596555
41,111,16785408,12.315949812898966
42,117,16785408,12.309302482480662
43,119,16785408,12.327817225181185
44,121,16785408,12.322314850432683
45,123,16785408,12.329845654799158
46,125,16785408,12.324341469574998
47,127,16785408,12.324631041015023
48,133,16785408,12.327826279187448
49,135,16785408,12.328106959978143
50,137,16785408,12.324631041015023
51,139,16785408,12.323771415565679
52,141,16785408,12.318842196421494
53,143,16785408,12.324929675814868
54,149,16785408,12.322893816458317
55,151,16785408,12.326658422167323
56,153,16785408,12.321735938807569
57,157,16785408,11.873521946913172
58,159,16785408,12.319420836158988
59,165,16785408,12.29458831526118
60,167,16785408,11.511828055806834
61,169,16785408,11.739845472838148
62,171,16785408,11.488631766988696
63,173,16785408,11.515113347533932
64,175,16785408,12.223526713054497
65,181,16785408,12.215280628061933
66,183,16785408,12.174737507869686
67,185,16785408,12.315082362677513
68,187,16785408,11.565383653414857
69,189,16785408,12.332164677600895
70,191,16785408,12.324051911741815
71,197,16785408,12.207889079277711
72,199,16785408,12.328396708394417
73,201,16785408,11.676082663403797
74,203,16785408,12.283647668029776
75,205,16785408,11.618667772322564
76,207,16785408,12.170500323378684
77,213,16785408,12.323183319873724
78,215,16785408,11.764596049967304
79,217,16785408,11.003491401293509
80,219,16785408,12.325499836985735
81,221,16785408,12.328976246088757
82,223,16785408,12.326079102351335
83,229,16785408,12.1471077777231
84,231,16785408,12.324341469574998
85,233,16785408,12.315082362677513
86,235,16785408,12.317106603305616
87,237,16785408,12.318842196421494
88,239,16785408,12.327817225181185
89,245,16785408,11.827731533579442
90,247,16785408,12.323481884518163
91,249,16785408,12.324341469574998
92,251,16785408,12.321735938807569
93,253,16785408,12.282497153544679
94,255,16785408,12.32087671715522
95,261,16785408,12.21954905609281
96,263,16785408,12.308435968357418
97,265,16785408,12.190015831747738
98,267,16785408,12.32695715522629
99,269,16785408,12.324350518476532
100,271,16785408,12.317106603305616
101,277,16785408,12.322314850432683
102,279,16785408,12.325499836985735
103,281,16785408,12.329266035368745
104,283,16785408,12.29892137014787
105,285,16785408,12.323472836892137
106,287,16785408,12.324631041015023
107,293,16785408,12.328106959978143
108,295,16785408,12.320587322104512
109,297,16785408,11.966422116062562
110,301,16809984,12.167701634063807
111,307,16809984,11.3207236111055
112,309,16809984,12.161513151231201
113,311,16809984,12.207579890371326
114,313,16809984,12.227470446008502
115,315,16809984,12.108243913998972
116,317,16809984,12.08930415596296
117,323,16809984,12.238865606789119
118,325,16809984,12.20871475011693
119,327,16809984,12.2886827045947
120,329,16809984,11.981755781505598
121,331,16809984,12.083455713481657
122,333,16809984,12.028404521138814
123,339,16809984,12.141275174571625
124,341,16809984,11.822655774715246
125,343,16809984,12.229178367210348
126,345,16809984,12.293562657372012
127,347,16809984,12.26401882284276
128,349,16809984,12.164611007065757
129,357,16809984,12.300768341407016
130,359,16809984,11.969478867904108
131,361,16809984,11.843446537814167
132,363,16809984,11.47428998923559
133,365,16809984,11.85681245410859
134,371,16809984,12.285521342185348
135,373,16809984,12.318363685927594
136,375,16809984,12.124181743171937
137,377,16809984,12.143520511805448
138,379,16809984,11.832250762304566
139,381,16809984,11.466525693977852
140,387,16809984,12.190299384175367
141,389,16809984,12.08124121396107
142,391,16809984,12.304513952936837
143,393,16809984,11.596635385845468
144,395,16809984,11.680437923034109
145,397,16809984,11.93683201431569
146,405,16809984,11.6519306456465
147,407,16809984,11.920579506653477
148,413,16809984,11.93792556863213
149,419,16809984,11.941987884660605
150,421,16809984,12.12110444205371
151,423,16809984,12.217224049275941
152,425,16809984,12.209566033405288
153,427,16809984,12.089860617655097
154,429,16809984,11.932773204687363
155,435,16809984,12.181536222894064
156,437,16809984,12.199358462632626
157,439,16809984,12.06154623286197
158,441,16809984,12.000102796933225
159,443,16809984,12.103780112771913
160,451,16809984,12.30393755654254
161,453,16809984,12.31951923781605
162,455,16809984,12.2434296202421
163,457,16809984,11.907879254981161
164,459,16809984,11.466275407783023
165,461,16809984,11.802998568332125
166,467,16809984,12.167992286600285
167,469,16809984,11.92789611864046
168,471,16809984,11.652972619994191
169,473,16809984,12.148575558285756
170,475,16809984,12.123342324279882
171,477,16809984,12.216380575863722
172,483,16809984,12.199358462632626
173,485,16809984,12.16601084013586
174,487,16809984,12.064870451446208
175,489,16809984,11.679139480739822
176,491,16809984,12.212688421401358
177,493,16809984,12.054350039727044
178,499,16809984,12.292133319683519
179,501,16809984,12.265155251767906
180,503,16809984,11.981491037750642
181,505,16809984,12.01464916619256
182,507,16809984,11.979023505560168
183,509,16809984,11.318772211680768
184,515,16809984,12.157572706838044
185,517,16809984,11.855474505063443
186,519,16809984,12.184926919363397
187,521,16809984,12.281500141737853
188,523,16809984,12.27375239853153
189,525,16809984,12.204176576670761
190,531,16809984,11.827713463693952
191,533,16809984,12.006685465968406
192,535,16809984,12.025917629897561
193,537,16809984,12.144081975882306
194,539,16809984,12.197658859964067
195,541,16809984,12.165456150762061
196,547,16809984,11.82984431178179
197,549,16809984,12.05904561996538
198,551,16809984,12.144643491880926
199,553,16809984,12.175607042592212
200,555,16809984,12.200491794236079
201,557,16809984,11.997079589743736
202,563,16809984,12.267733130938653
203,565,16809984,12.256284176910626
204,567,16809984,12.296161487302976
205,569,16809984,12.01106934344903
206,571,16809984,12.102952230372463
207,573,16809984,11.946604808637382
208,579,16809984,12.088191386238577
209,581,16809984,12.222909433317458
210,583,16809984,12.115233930182745
211,585,16809984,11.97411707720143
212,587,16809984,12.157563914059466
213,595,16809984,12.32212002240121
214,597,16809984,12.274325970191104
215,599,16809984,12.226616664290681
216,601,16809984,12.034182551778892
217,603,16809984,11.669280745390768
218,605,16809984,12.258572257825513
219,611,16809984,12.157572706838044
220,613,16809984,11.457514459928651
221,615,16809984,12.3068200786583
222,617,16809984,12.301056384408012
223,619,16809984,12.212120595713767
224,621,16809984,12.170529480076803
225,627,16809984,12.254282806663538
226,629,16809984,12.238295344347081
227,631,16809984,12.1744783292631
228,633,16809984,11.0314037655119
229,635,16809984,12.238295344347081
230,637,16809984,12.320106124513076
231,643,16809984,11.315846373607732
232,645,16809984,12.083733668793244
233,647,16809984,12.09208697678835
234,649,16809984,12.314032296345784
235,651,16809984,12.09904963710014
236,653,16809984,12.121663835150983
237,659,16809984,12.082899841218612
238,661,16809984,11.79875695309621
239,663,16809984,12.076797296404115
240,665,16809984,11.583083032386496
241,675,16809984,12.313455007867141
242,679,16809984,11.97084267406519
243,685,16809984,12.316341991659169
244,691,16809984,12.310280888508734
245,693,16809984,12.3068200786583
246,695,16809984,11.770205597189712
247,697,16809984,11.309512244021965
248,699,16809984,12.312300593276204
249,707,16809984,12.099040928769618
250,711,16809984,12.234304994745285
251,713,16809984,12.227755066412557
252,717,16809984,12.314618660364545
253,727,16809984,11.861907786104407
254,729,16809984,12.329928968979306
255,731,16809984,12.203893052849223
256,733,16809984,11.91869471379507
257,2051,16867328,12.174813848139348
258,2053,16867328,12.17312683131017
259,2055,16867328,12.23216808370536
260,2057,16867328,11.997189069234818
261,2059,16867328,12.101016086785275
262,2061,16867328,11.99227594993587
263,2067,16867328,11.110800196561232
264,2069,16867328,10.131403556824134
265,2071,16867328,11.949050866957021
266,2073,16867328,12.214018874988142
267,2075,16867328,12.010301871611109
268,2077,16867328,11.768956988009391
269,2083,16867328,11.991730296179385
270,2085,16867328,11.961795617332104
271,2087,16867328,12.193119880174764
272,2089,16867328,12.126637391331855
273,2091,16867328,12.203564844692815
274,2093,16867328,12.220824047320267
275,2099,16867328,11.886796096115777
276,2101,16867328,12.109364814532965
277,2103,16867328,12.082440079655019
278,2105,16867328,11.984368827463118
279,2107,16867328,12.05894447860217
280,2109,16867328,12.227627942852338
281,2115,16867328,11.95663173624043
282,2117,16867328,11.854982235794786
283,2119,16867328,11.835284558436063
284,2121,16867328,12.10853029263208
285,2123,16867328,12.139204831693885
286,2125,16867328,12.17339918258589
287,2131,16867328,11.929031176691492
288,2133,16867328,12.076903469706298
289,2135,16867328,12.133886674421499
290,2137,16867328,12.061703922998813
291,2139,16867328,12.03032092594653
292,2141,16867328,11.989266946673784
293,2147,16867328,11.726541290290735
294,2149,16867328,12.128860979220912
295,2151,16867328,12.195376735603995
296,2153,16867328,11.96097282861898
297,2155,16867328,12.012500106826346
298,2157,16867328,12.112704052761444
299,2163,16867328,11.931199760064963
300,2165,16867328,12.100469173709055
301,2167,16867328,12.05728941792739
302,2169,16867328,12.074128424080213
303,2171,16867328,11.792398535749141
304,2173,16867328,11.937955264148753
305,2179,16867328,12.171159235815864
306,2181,16867328,12.238700446090396
307,2183,16867328,12.30010296678519
308,2185,16867328,12.101302584794281
309,2187,16867328,12.256344226034942
310,2189,16867328,12.09713667698469
311,2195,16867328,12.114652792341925
312,2197,16867328,12.003199462581374
313,2199,16867328,12.112147385171292
314,2201,16867328,11.711169448654669
315,2203,16867328,12.099904950125717
316,2205,16867328,12.165541037617455
317,2211,16867328,12.165260263855592
318,2213,16867328,12.185782061739035
319,2215,16867328,12.159647509004035
320,2217,16867328,12.266603445228975
321,2219,16867328,12.017977809887796
322,2221,16867328,12.17425145724407
323,2227,16867328,11.838748529572783
324,2229,16867328,12.143959313091635
325,2231,16867328,12.05479906319302
326,2233,16867328,12.203564844692815
327,2235,16867328,12.22139074939789
328,2237,16867328,12.140323198240345
329,2243,16867328,12.116880691238546
330,2245,16867328,12.104915359817658
331,2247,16867328,12.121617698209425
332,2249,16867328,11.488088159673623
333,2251,16867328,11.510163917869784
334,2253,16867328,11.64931056511905
335,2259,16867328,12.06307549162853
336,2261,16867328,12.12328175390655
337,2263,16867328,12.081886190229241
338,2265,16867328,12.144239104452682
339,2267,16867328,12.07469024622812
340,2269,16867328,11.951218267925416
341,2275,16867328,11.589120853072428
342,2277,16867328,12.145358398834091
343,2279,16867328,12.099358137479664
344,2281,16867328,12.131661243595165
345,2283,16867328,12.093806015309298
346,2285,16867328,12.150669113033532
347,2291,16867328,12.160769645601963
348,2293,16867328,12.0943609982189
349,2295,16867328,11.875548195820581
350,2297,16867328,12.093797344105473
351,2299,16867328,11.914470640340015
352,2301,16867328,12.167787694376393
353,2307,16867328,12.150117702651695
354,2309,16867328,12.261476146306144
355,2311,16867328,12.13948440401307
356,2313,16867328,12.25093185746866
357,2315,16867328,12.228762662073086
358,2317,16867328,11.822542648851307
359,2323,16867328,11.881981329583846
360,2325,16867328,12.278327611759945
361,2327,16867328,12.273467356282362
362,2329,16867328,11.813533716627784
363,2331,16867328,12.060867333039212
364,2333,16867328,12.163567121869116
365,2339,16867328,12.099358137479664
366,2341,16867328,12.008933726812216
367,2343,16867328,12.083548010877632
368,2345,16867328,12.129986163728256
369,2347,16867328,11.58300880434387
370,2349,16867328,12.154880737911652
371,2355,16867328,12.176782625519419
372,2357,16867328,12.088804796152758
373,2359,16867328,12.236427528851204
374,2361,16867328,12.060048104835365
375,2363,16867328,12.06390375957058
376,2365,16867328,12.074128424080213
377,2371,16867328,12.165541037617455
378,2373,16867328,12.244386435106813
379,2375,16867328,12.224225048339358
380,2377,16867328,12.141153369145933
381,2379,16867328,12.078001737159093
382,2381,16867328,12.122445312786354
383,2387,16867328,12.094638508775201
384,2389,16867328,12.253779876498365
385,2391,16867328,12.238700446090396
386,2393,16867328,11.947425832060723
387,2395,16867328,11.891631533678318
388,2397,16867328,11.806653791852188
389,2403,16867328,11.784217545825651
390,2405,16867328,11.738807393210038
391,2407,16867328,12.05755661051068
392,2409,16867328,12.139196095266403
393,2411,16867328,12.041030224418394
394,2413,16867328,12.205825568706455
395,2419,16867328,12.017969247079998
396,2421,16867328,12.04956319664759
397,2423,16867328,11.90343913570306
398,2425,16867328,12.15432018700586
399,2427,16867328,12.248939031723024
400,2429,16867328,12.225359136044068
401,2435,16867328,12.05342076246569
402,2437,16867328,12.18297435897436
403,2439,16867328,12.270038903712583
404,2441,16867328,11.937676448336068
405,2443,16867328,12.067226602183462
406,2445,16867328,11.816976686673005
407,2451,16867328,12.218557764468281
408,2453,16867328,12.09629516480317
409,2455,16867328,12.075243476044706
410,2457,16867328,12.168630404607931
411,2459,16867328,12.064732141260553
412,2461,16867328,12.205260309181373
413,2467,16867328,12.202152317401708
414,2469,16867328,12.3280076479376
415,2471,16867328,12.319363819885304
416,2473,16867328,12.146477899557848
417,2475,16867328,11.762653829604881
418,2477,16867328,12.12217523666062
419,2483,16867328,12.034157593243823
420,2485,16867328,11.331990567495481
421,2487,16867328,11.413215037516654
422,2489,16867328,11.817241613648799
423,2491,16867328,12.16104144421365
424,2493,16867328,12.151798347612337
