idx,og Index,data (B),bandwidth (GB/s)
0,4,67305472,10.964437222296887
1,6,67305472,11.406299697257694
2,8,67305472,10.898533189650635
3,10,67305472,11.103473817976234
4,12,67305472,11.024842372313875
5,14,67305472,11.401847728421597
6,20,67305472,11.047832404384106
7,22,67305472,10.68688403577608
8,24,67305472,11.011970494899565
9,26,67305472,10.663856158335724
10,28,67305472,11.001890275119703
11,30,67305472,10.720875160063352
12,36,67305472,11.018431535101247
13,38,67305472,11.397767878688839
14,40,67305472,10.891591517288955
15,42,67305472,11.27115044473047
16,44,67305472,11.029236078565038
17,46,67305472,11.263786473375946
18,52,67321856,11.010500574715275
19,54,67321856,11.047968391734535
20,56,67321856,10.972084214780939
21,58,67321856,10.907346653690112
22,60,67321856,10.980960987019596
23,62,67321856,11.03834588093475
24,68,67321856,10.927971524426232
25,70,67321856,11.03574025612965
26,72,67321856,11.020420938353478
27,74,67321856,11.013267251189145
28,76,67321856,10.992263827958507
29,78,67321856,10.995366132984731
30,84,67321856,11.002956922290409
31,86,67321856,11.012517805696907
32,88,67321856,11.02671693959714
33,90,67321856,11.092296833015777
34,92,67321856,11.018054578127506
35,94,67321856,11.026198619732257
36,100,67321856,10.990311422752256
37,102,67321856,10.896104814660458
38,104,67321856,11.052437543629
39,106,67321856,10.872622789661731
40,108,67321856,11.04541621301643
41,110,67321856,10.858087164875476
42,116,67321856,11.0375351102641
43,118,67321856,11.002552319109673
44,120,67321856,11.032268002650818
45,122,67321856,10.962020382087198
46,124,67321856,10.986580813115122
47,126,67321856,10.99513627256211
48,132,67321856,11.014824117807594
49,134,67321856,11.006869621076234
50,136,67321856,10.999503467476629
51,139,67321856,12.349584121059276
52,140,67321856,11.00174859573055
53,142,67321856,11.006466529541951
54,148,67321856,11.03267479432708
55,150,67321856,11.001345879184628
56,152,67321856,11.034582595474701
57,154,67321856,10.959279390269334
58,156,67321856,11.020594126571602
59,158,67321856,10.988761477324143
60,164,67321856,10.96653637069129
61,166,67321856,11.041591966036396
62,168,67321856,10.956197412475301
63,170,67321856,10.981534175249491
64,172,67321856,11.017650666965176
65,174,67321856,11.093642127521296
66,180,67321856,10.99467658054734
67,182,67321856,10.926550835220244
68,184,67321856,10.940529008422448
69,186,67321856,10.94166879578
70,188,67321856,10.91396701226069
71,190,67321856,10.963107522125911
72,196,67321856,10.97580498429975
73,198,67321856,10.911702737883392
74,200,67321856,10.958366030913394
75,202,67321856,10.972826378390712
76,204,67321856,10.96253447070021
77,206,67321856,10.94326240673613
78,212,67321856,10.970766451173857
79,214,67321856,10.971853538594125
80,216,67321856,10.971855326744317
81,218,67321856,10.937059542459462
82,220,67321856,10.973457743572423
83,222,67321856,10.983942219399992
84,228,67321856,10.873634311928058
85,230,67321856,10.879144792221659
86,232,67321856,10.949126834460825
87,234,67321856,11.040025713432973
88,236,67321856,10.927175112567738
89,238,67321856,11.02353915933913
90,244,67321856,10.949755475214744
91,246,67321856,11.00387773021694
92,248,67321856,10.995596003018315
93,250,67321856,10.960365986682513
94,252,67321856,11.00048301442834
95,254,67321856,10.95802534404842
96,260,67321856,10.879255551063057
97,262,67321856,10.95220483507316
98,264,67321856,10.981073828721827
99,266,67321856,10.956825082169853
100,268,67321856,11.027410516963595
101,270,67321856,10.941553205898849
102,276,67321856,11.022384056950688
103,278,67321856,10.973858420916393
104,280,67321856,11.040373328820221
105,282,67321856,11.09510660287321
106,284,67321856,10.990139185002105
107,286,67321856,10.883196868726108
108,292,67321856,10.970711029790884
109,294,67321856,10.878525990670774
110,296,67321856,11.005144092793758
111,298,67321856,10.8883225636473
112,300,67321856,11.054237833613021
113,302,67321856,10.97271370612584
114,308,67321856,10.992148961391386
115,310,67321856,10.898812528432133
116,312,67321856,11.035392932428932
117,314,67321856,10.993987114592336
118,316,67321856,11.140463772730214
119,318,67321856,10.865042367171176
120,324,67321856,11.05487678717223
121,326,67321856,10.871442918181728
122,328,67321856,11.098794185196708
123,330,67321856,11.012460160268427
124,332,67321856,11.025850090569326
125,334,67321856,11.013497870324382
126,341,67321856,12.322964048761861
127,343,67321856,12.347192301668146
128,345,67321856,12.34147019301806
129,347,67321856,12.351324208184893
130,349,67321856,12.3500190968738
131,351,67321856,12.349511628069086
132,357,67321856,12.33293311638326
133,359,67321856,12.332210178152659
134,361,67321856,12.350744124660556
135,363,67321856,12.350454103330751
136,365,67321856,12.331342764144843
137,367,67321856,12.34632277885103
138,373,67321856,12.335172503511085
139,375,67321856,12.331918767648107
140,377,67321856,12.33589804950861
141,379,67321856,12.328163289822147
142,381,67321856,12.337996058254555
143,383,67321856,12.348061946970828
144,389,67321856,12.339081515238492
145,391,67321856,12.3500190968738
146,393,67321856,12.34943913592997
147,395,67321856,12.351179182195418
148,397,67321856,12.33293311638326
149,399,67321856,12.35313732045599
150,404,67321856,11.084642545775166
151,406,67321856,10.819167075668762
152,408,67321856,11.02787295034973
153,410,67321856,10.857920797748092
154,412,67321856,10.964993123451473
155,414,67321856,10.923317085644591
156,420,67321856,11.03093755140911
157,422,67321856,10.91572247135391
158,424,67321856,10.987613651423487
159,426,67321856,10.964077025892065
160,428,67321856,11.002439035551346
161,430,67321856,10.928196811203723
162,436,67321856,11.018573935997141
163,438,67321856,10.982048304346387
164,440,67321856,10.977234931624897
165,442,67321856,10.947875110500238
166,444,67321856,10.984917204203525
167,446,67321856,10.888208098132203
168,453,67321856,12.350164095621242
169,454,67321856,10.890013411558527
170,456,67321856,10.964193092162478
171,458,67321856,10.899378937093763
172,460,67321856,10.982566064871701
173,462,67321856,10.851760049892219
174,468,67321856,10.975346907261201
175,470,67321856,10.924735161180028
176,473,67321856,12.35168678805919
177,474,67321856,10.828132423829599
178,476,67321856,10.844933645076306
179,478,67321856,10.841245195087112
180,484,67321856,10.875208165162913
181,486,67321856,10.794021059625543
182,488,67321856,10.890802653645949
183,490,67321856,10.870768820872206
184,492,67321856,10.91141976964443
185,494,67321856,10.867511862001255
186,500,67321856,10.840518977953389
187,503,67321856,12.35088687453573
188,504,67321856,10.838230982866182
189,506,67321856,10.842753803153718
190,508,67321856,10.850582952934074
191,510,67321856,10.85876144174956
192,1036,67338240,10.78425387316015
193,1038,67338240,10.88263656942662
194,1044,67338240,10.91650986134827
195,1046,67338240,10.768635872104793
196,1048,67338240,10.98093956509516
197,1050,67338240,10.749108234887721
198,1052,67338240,10.986558001209955
199,1054,67338240,10.714134674178531
200,1060,67338240,10.92989120951805
201,1062,67338240,10.980194694017317
202,1064,67338240,10.962348055019596
203,1066,67338240,10.946493267340543
204,1068,67338240,10.96451858089955
205,1070,67338240,10.997408012704673
206,516,67321856,10.825290861371597
