idx,og Index,data (B),bandwidth (GB/s)
0,1,16801792,12.075353669509822
1,3,16801792,11.066697404214118
2,5,16801792,12.099292914963284
3,7,16801792,11.99616449271275
4,9,16801792,12.193130194227459
5,11,16801792,12.214981094243795
6,13,16801792,12.131722008134608
7,15,16801792,11.833139539387828
8,17,16801792,11.948943626914117
9,23,16809984,11.96675218761835
10,25,16809984,11.49689118568557
11,27,16809984,11.836241465188673
12,29,16809984,12.050478722031537
13,31,16809984,12.182666245358117
14,33,16809984,12.162357864516558
15,35,16809984,12.1857748884359
16,37,16809984,11.948787207606289
17,39,16809984,12.140152817298109
18,41,16809984,12.158135471122774
19,43,16809984,12.120545100584037
20,45,16809984,12.07929659767353
21,47,16809984,12.259144411545922
22,49,16809984,12.242573608452846
23,55,16809984,10.696483646963525
24,57,16809984,10.554851688809272
25,59,16809984,11.630269170763095
26,61,16809984,12.267160175257823
27,63,16809984,11.444292927883184
28,65,16809984,11.85681245410859
29,67,16809984,11.926271309095759
30,69,16809984,11.905998475804099
31,71,16809984,11.990789695186846
32,73,16809984,12.122791518797557
33,75,16809984,12.204743663837041
34,77,16809984,12.149699473536614
35,79,16809984,12.17674478576225
36,81,16809984,11.692397152366478
37,87,16809984,12.213540258947644
38,89,16809984,12.236584875828754
39,91,16809984,12.315773509705732
40,93,16809984,12.164329318594291
41,95,16809984,12.150823596762862
42,97,16809984,12.193694961482105
43,99,16809984,12.186057571021369
44,101,16809984,12.026752215757707
45,103,16809984,12.204468974409796
46,105,16809984,12.25742811058967
47,107,16809984,12.17702704954193
48,109,16809984,12.145485863247913
49,111,16809984,12.24428575174596
50,113,16809984,12.199358462632626
51,119,16809984,11.375891343554276
52,121,16809984,11.893320843329935
53,123,16809984,12.050202294486866
54,125,16809984,12.076528336045346
55,127,16809984,11.885525523147454
56,129,16809984,12.202192186524586
57,131,16809984,12.130060931785842
58,133,16809984,12.126980645868743
59,135,16809984,12.158979715243802
60,137,16809984,12.24856820586358
61,139,16809984,12.087913225814802
62,141,16809984,12.189733638475795
63,143,16809984,12.23089566475818
64,145,16809984,12.170811455778136
65,151,16809984,12.043847959350362
66,153,16809984,12.211552822825528
67,155,16809984,12.137067404470141
68,157,16809984,11.160303539300108
69,159,16809984,11.396614775070882
70,161,16809984,12.01574843673606
71,163,16809984,12.29299627626433
72,165,16809984,12.314609638956693
73,167,16809984,12.299040366644912
74,169,16809984,12.149699473536614
75,171,16809984,11.781036507932058
76,173,16809984,11.828787115405726
77,175,16809984,12.155603442042086
78,177,16809984,12.190582276718503
79,183,16809984,11.699949260730937
80,185,16809984,12.089025944325703
81,187,16809984,12.241147188101682
82,189,16809984,12.128380581874223
83,191,16809984,11.537046238823262
84,193,16809984,11.592540768749625
85,195,16809984,12.189167945285739
86,197,16809984,12.253425276631726
87,199,16809984,11.86833129408708
88,201,16809984,12.13230212275794
89,203,16809984,12.130621151897747
90,205,16809984,12.122223279883004
91,207,16809984,12.13623496235309
92,209,16809984,11.656592707445595
93,215,16809984,12.085410357947046
94,217,16809984,12.191431033132295
95,219,16809984,12.227479340195567
96,221,16809984,12.209007365357616
97,223,16809984,11.494375545744035
98,225,16809984,11.910857667595351
99,227,16809984,12.177865097234658
100,229,16809984,11.904919193779126
101,231,16809984,12.21979070044692
102,233,16809984,12.065147552373269
103,239,16809984,12.329938012846325
104,241,16809984,11.818940133249713
105,247,16809984,12.258572257825513
106,249,16809984,12.100164406911425
107,251,16809984,12.330218379304577
108,253,16809984,12.32559848133231
109,255,16809984,12.217517072560927
110,257,16809984,12.329648615682066
111,259,16809984,12.000376930699007
112,261,16809984,12.078741107997413
113,263,16809984,12.325589443830161
114,265,16809984,12.210985102729278
115,267,16809984,11.256921908629334
116,269,16809984,12.014923964971567
117,271,16809984,11.961302552221346
118,273,16809984,12.150261509149207
119,279,16809984,11.860300903387492
120,281,16809984,12.17250358441107
121,283,16809984,12.253996949983817
122,285,16809984,12.250853406483849
123,286,16809984,11.953681396043406
124,287,16809984,11.477799892800935
125,289,16809984,10.92404370661409
126,291,16809984,11.81680490443563
127,293,16809984,11.652714128357436
128,295,16809984,11.852540436873351
129,297,16809984,11.8014076052808
130,299,16809984,12.2886827045947
131,301,16809984,12.257714127375344
132,303,16809984,12.085966461231404
133,305,16809984,11.975754950600855
134,311,16809984,11.730525634118905
135,313,16809984,11.884718824677252
136,315,16809984,12.047438716391126
137,317,16809984,11.970297114308257
138,319,16809984,11.69838595524267
139,321,16809984,12.024266007632304
140,323,16809984,12.235738727059788
141,325,16809984,11.814155634957002
142,327,16809984,11.920046971128073
143,329,16809984,12.169965567869523
144,331,16809984,11.837583412438418
145,333,16809984,10.767520617483626
146,335,16809984,11.783150569320881
147,337,16809984,11.295893559117024
148,342,16809984,11.41841429931897
149,343,16809984,10.529464049143392
150,345,16809984,10.890977390024348
151,347,16809984,12.151385736384796
152,349,16809984,12.13314278290243
153,351,16809984,11.870216954725072
154,353,16809984,11.900064845150347
155,355,16809984,12.157572706838044
156,357,16809984,12.138469670405213
157,359,16809984,11.73418588336306
158,361,16809984,12.067642033625752
159,363,16809984,11.682256227357355
160,365,16809984,12.313743645340404
161,367,16809984,12.305090403337969
162,369,16809984,12.026192944388283
163,374,16809984,11.209122006841506
164,375,16809984,10.656780343324893
165,377,16809984,11.328787885935643
166,379,16809984,12.142397739388214
167,381,16809984,11.934391313515551
168,383,16809984,12.097656463652301
169,385,16809984,11.834116643247155
170,387,16809984,11.527923867625567
171,389,16809984,11.349585108465948
172,391,16809984,12.154759666694625
173,393,16809984,12.056009937432046
174,395,16809984,12.130621151897747
175,397,16809984,11.956946416326902
176,399,16809984,11.504696671984428
177,401,16809984,12.225193959686639
178,407,16809984,11.803528984677868
179,409,16809984,12.098213694528809
180,411,16809984,11.854939409988766
181,413,16809984,12.162639461688734
182,415,16809984,12.041639326412549
183,417,16809984,11.8197296155174
184,419,16809984,11.551245041240252
185,421,16809984,12.07402150772422
186,423,16809984,11.774954556757647
187,425,16809984,11.603303320715334
188,427,16809984,11.99024231582371
189,429,16809984,12.199650629541761
190,430,16809984,11.974935957896056
191,431,16809984,12.037224489795918
192,433,16809984,12.186349101174342
193,439,16809984,10.939513090334042
194,441,16809984,12.33167468116245
195,443,16809984,12.167710441512417
196,445,16809984,12.286958123433978
197,447,16809984,12.052967140755273
198,449,16809984,12.131741747376626
199,451,16809984,12.302784925744096
200,453,16809984,11.742841994007723
201,455,16809984,11.095010606602626
202,457,16809984,11.154852863302821
203,459,16809984,12.216664680215235
204,461,16809984,12.21808540020991
205,463,16809984,12.308847660840765
206,465,16809984,11.941173503782322
207,471,16809984,12.041363304250655
208,473,16809984,11.965108259064415
209,475,16809984,12.208723617039356
210,477,16809984,12.176453714944673
211,479,16809984,12.269165754324503
212,481,16809984,11.934399786444326
213,483,16809984,10.872043493389455
214,485,16809984,10.867545122012714
215,487,16809984,11.709607041653083
216,489,16809984,11.979305213888882
217,491,16809984,11.954761036118205
218,493,16809984,11.952049554481775
219,495,16809984,12.212404501957183
220,497,16809984,11.983951043267737
221,1475,16809984,12.080129927993447
222,1476,16809984,11.74783982109162
223,1477,16809984,10.93244833096279
224,1479,16809984,11.133811184688975
225,1481,16809984,11.345670721459806
226,1483,16809984,12.091530310136179
227,1485,16809984,11.406017986377904
228,1487,16809984,10.843087283388
229,1493,16818176,11.247712594457258
230,1495,16818176,11.665638471649494
231,1497,16818176,11.496203858960047
232,1499,16818176,10.69646908277052
233,1501,16818176,11.19451954860293
234,1503,16818176,11.147750223542598
235,1505,16818176,11.18070700046669
236,1507,16818176,11.853494094106653
237,1509,16818176,11.807432328071599
238,1511,16818176,11.643670577158069
239,1513,16818176,10.612450221137726
240,1515,16818176,11.13664060772127
241,1516,16818176,11.930187356886067
242,1517,16818176,11.898586447441032
243,1519,16818176,11.719223771560449
244,1525,16818176,12.223186745779563
245,1527,16818176,11.467349963930523
246,1529,16818176,11.450867929666888
247,1531,16818176,11.468358694429197
248,1533,16818176,10.36629024692568
249,1535,16818176,9.611742914571371
250,1537,16818176,10.198328675268069
251,1539,16818176,10.46912362935781
252,1541,16818176,11.656065796687017
253,1543,16818176,12.23372291031243
254,1545,16818176,12.033990766738507
255,1547,16818176,12.158432447594508
256,1549,16818176,11.74069107254677
257,1551,16818176,11.164089420645716
258,1557,16818176,11.77409488205376
259,1559,16818176,12.228314745297006
260,1561,16818176,12.158995017307843
261,1563,16818176,12.166313163902787
262,1565,16818176,11.877603627793782
263,1567,16818176,11.851355760334242
264,1569,16818176,12.031511384675257
265,1571,16818176,12.212110034185999
266,1573,16818176,11.676272518488279
267,1574,16818176,11.852692128521925
268,1575,16818176,10.394172204749083
269,1577,16818176,11.938317210361483
270,1579,16818176,12.154777012982883
271,1580,16818176,11.947264369351162
272,1581,16818176,10.483114558212216
273,1582,16818176,11.580811777627053
274,1583,16818176,10.22471024819194
275,1589,16818176,12.228590374866576
276,1591,16818176,10.962422580085859
277,1593,16818176,11.421255754539967
278,1595,16818176,11.94835081377662
279,1597,16818176,11.58745029843332
280,1598,16818176,11.84014215343588
281,1599,16818176,11.703565660157563
282,1601,16818176,12.180129027772548
283,1603,16818176,12.09742286876685
284,1604,16818176,11.879482925099577
285,1605,16818176,10.957851350594147
286,1606,16818176,11.824159476137144
287,1607,16818176,10.703221942839106
288,1609,16818176,11.434922996274748
289,1611,16818176,10.69059449838702
290,1612,16818176,11.814856158546995
291,1613,16818176,10.903518678676965
292,1614,16818176,11.627964346260534
293,1615,16818176,10.959907932002102
294,1621,16818176,12.099093836418625
295,1625,16818176,11.451616439550083
296,1627,16818176,10.64835777803807
297,1629,16818176,11.603823743501465
298,1631,16818176,11.94998934189771
299,1633,16818176,11.880825644456344
300,1635,16818176,11.618702198051963
301,1636,16818176,11.91530290610474
302,1637,16818176,11.174058490115998
303,1639,16818176,10.587010809112867
304,1641,16818176,10.468296047136095
305,1643,16818176,11.746997275965635
306,1645,16818176,10.557025734442549
307,1647,16818176,12.007870934944838
308,1653,16818176,11.360523640490271
309,1654,16818176,11.847615532062829
310,1655,16818176,9.952478566119556
311,1656,16818176,11.559161904238247
312,1657,16818176,9.87821576081083
313,1659,16818176,12.043918522146885
314,1661,16818176,11.457608043268403
315,1663,16818176,12.09742286876685
316,1665,16818176,12.215516114318254
317,1667,16818176,12.049432390122979
318,1669,16818176,11.05814373989898
319,1671,16818176,11.760403001815298
320,1673,16818176,11.347523549339755
321,1675,16818176,11.934521900306839
322,1677,16818176,12.248548695446352
323,1679,16818176,11.728377033598262
324,1684,16818176,11.583874764870743
325,1685,16818176,10.081340424205514
326,1686,16818176,11.933437969193916
327,1687,16818176,11.832944604978115
328,1688,16818176,11.95896251503921
329,1689,16818176,10.529319069838493
330,1691,16818176,10.320077366020804
331,1693,16818176,11.14964217169792
332,1695,16818176,11.949717637763499
333,1697,16818176,11.882983022872631
334,1699,16818176,12.331894456278253
335,1701,16818176,12.217787890147124
336,1703,16818176,11.685090861087277
337,1705,16818176,11.74542214077598
338,1707,16818176,10.432755706225905
339,1709,16818176,11.166698647700255
340,1711,16818176,11.158630298767905
341,1717,16818176,11.491176729824888
342,1719,16818176,12.14887672103674
343,1721,16818176,11.883789092861887
344,1723,16818176,10.792019969327319
345,1725,16818176,10.92754937747797
346,1727,16818176,10.317848746754617
347,1728,16818176,11.604592384160567
348,1729,16818176,10.282126417843196
349,1731,16818176,9.912490680246247
350,1732,16818176,11.315762170978045
351,1733,16818176,9.647731275233388
352,1734,16818176,11.383653818168035
353,1735,16818176,10.16125399364883
354,1737,16818176,12.099372375906832
355,1739,16818176,12.190299470295063
356,1741,16818176,11.940758327487739
357,1743,16818176,11.10769023487189
358,1749,16818176,11.706954699195391
359,1751,16818176,10.847930606995288
360,1753,16818176,11.325264273602809
361,1755,16818176,11.712180596062831
362,1757,16818176,11.730733041079455
363,1759,16818176,11.228968271719761
364,1761,16818176,10.463287732424343
365,1763,16818176,9.969085370588482
366,1765,16818176,10.883191023305626
367,1767,16818176,11.427464084857784
368,1769,16818176,10.334085226738567
369,1771,16818176,9.489731132740866
370,1773,16818176,11.784655163352895
371,1775,16818176,12.084340890098892
372,1781,16818176,11.514085746110837
373,1783,16818176,10.934369762213429
374,1785,16818176,11.726021972290956
375,1787,16818176,11.700707684344398
376,1789,16818176,11.488915955818209
377,1791,16818176,11.141126077964543
378,1792,16818176,11.154130725733818
379,1793,16818176,12.177024776633795
380,1795,16818176,11.830555688427308
381,1797,16818176,10.598546291429875
382,1798,16818176,11.862322883435453
383,1799,16818176,10.357709847973961
384,1801,16818176,11.213874173620534
385,1803,16818176,11.238565423964396
386,1805,16818176,10.943704735194789
387,1807,16818176,12.313682995902804
388,1813,16818176,12.008968430553216
389,1815,16818176,11.970402425657305
390,1817,16818176,11.901011341860722
391,1818,16818176,11.966859162826704
392,1819,16818176,10.20386648351915
393,1821,16818176,10.316234865172062
394,1823,16818176,11.920175774328444
395,1825,16818176,11.91125225484912
396,1827,16818176,11.20072246501226
397,1829,16818176,11.894000374821871
398,1831,16818176,11.57927291905059
399,1833,16818176,12.329571013421775
400,1835,16818176,11.943743271150955
401,1837,16818176,11.3072337839237
402,1839,16818176,11.982410592402813
403,1845,16818176,12.04005578257396
404,1847,16818176,11.823901776449183
405,1849,16818176,12.168293743501883
406,1851,16818176,11.450119517626723
407,1852,16818176,11.666164453878276
408,1853,16818176,11.968494254215047
409,1855,16818176,12.1085713792021
410,1857,16818176,12.063546349986945
411,1859,16818176,12.114153343494383
412,1861,16818176,12.044194526959865
413,1863,16818176,12.124213859147781
414,1865,16818176,12.177015959992499
415,1867,16818176,12.244259425898907
416,1869,16818176,11.338954882650663
417,1871,16818176,12.141299043317808
418,1877,16818176,11.830813678241533
419,1879,16818176,11.398961511115871
420,1881,16818176,10.25503539041654
421,1882,16818176,11.5843854202757
422,1883,16818176,11.557636736104763
423,1885,16818176,12.19256187562528
424,1887,16818176,11.409842293722006
425,1888,16818176,11.963045686434626
426,1889,16818176,11.786505160484154
427,1891,16818176,12.103273275780177
428,1893,16818176,11.778052768877917
429,1895,16818176,11.094559382120385
430,1897,16818176,11.717133603047063
431,1898,16818176,11.914500996052627
432,1899,16818176,12.277725702505162
433,1900,16818176,12.028207130739766
434,1901,16818176,11.7451514569548
435,1903,16818176,9.817140882494408
436,1909,16818176,12.083793889334357
437,1911,16818176,11.90020293390921
438,1913,16818176,11.574945577402595
439,1914,16818176,11.64006026910696
440,1915,16818176,10.734709039962725
441,1917,16818176,11.582087825437217
442,1919,16818176,12.070750017943013
443,1921,16818176,10.514994244885889
444,1923,16818176,11.859378492708371
445,1925,16818176,11.762237165566898
446,1927,16818176,11.27352044133715
447,1929,16818176,11.831354661158839
448,1931,16818176,12.22063767837926
449,1933,16818176,11.75961358277792
450,1935,16818176,11.79524267731954
451,1941,16818176,11.38957449704699
452,1943,16818176,11.795499129268705
453,1945,16818176,12.003208815678661
454,1946,16818176,11.902080966989727
455,1947,16818176,12.175332215571636
456,1949,16818176,11.778852915056996
457,1951,16818176,10.896962644374497
458,1953,16818176,11.763035164238733
459,1955,16818176,11.75409061555622
460,1956,16818176,11.673152377534866
461,1957,16818176,9.825216037987166
462,1959,16818176,8.859453909776535
463,1961,16818176,10.262043649534558
464,1963,16818176,10.599822140652584
465,1965,16818176,11.274979100142998
466,1967,16818176,12.219208179184117
467,1972,16818176,11.874660031575052
468,1973,16818176,9.936290951027443
469,1974,16818176,11.552301815666537
470,1975,16818176,10.554905582343155
471,1977,16818176,10.13323821597104
472,2507,16818176,9.782235000351896
473,2509,16818176,9.544019898204997
474,2511,16818176,10.8773417601991
475,2513,16818176,10.773437329845146
476,2515,16818176,12.061331566249853
477,2517,16818176,11.044665478459253
478,2519,16818176,11.572906552750858
479,2521,16818176,10.706492517692775
480,2523,16818176,10.514783876499786
481,2525,16818176,11.35168248559962
482,2527,16818176,11.333331087086755
483,2533,16818176,11.95270706295396
484,2535,16818176,11.374045832502054
485,2537,16818176,10.598753345554941
486,2539,16818176,11.998002494028883
487,2541,16818176,11.947272856432479
488,2543,16818176,12.258261922306843
489,2545,16818176,11.462105862187645
490,2547,16818176,11.806371358371358
491,2549,16818176,11.136404630386215
492,2551,16818176,12.095473989752973
493,2553,16818176,11.253967085602326
494,2555,16818176,10.73426369453176
495,2556,16818176,11.424475483622917
496,2557,16818176,10.030928671288631
497,2559,16818176,10.429029331570582
498,2565,16818176,11.735709944406336
499,2567,16818176,11.094332503257087
500,2569,16818176,12.152809612310786
501,2571,16818176,12.21040770631438
502,2573,16818176,11.791273231047084
503,2575,16818176,11.536073345007843
504,2577,16818176,11.23088039083963
505,2579,16818176,10.714356884115677
506,2580,16818176,11.466857392595642
507,2581,16818176,9.919225626698232
508,2582,16818176,11.364937864484434
509,2583,16818176,9.023115522890457
510,2585,16818176,9.139548103039202
511,2587,16818176,9.029476222842865
512,2589,16818176,10.449557398958534
513,2591,16818176,10.663271633508876
514,2596,16818176,11.597934212858277
515,2597,16818176,11.493438393751047
516,2598,16818176,11.979133249190145
517,2599,16818176,11.111220047819105
518,2601,16818176,11.07189546786465
519,2603,16818176,11.361505988406224
520,2605,16818176,11.422993406954655
521,2607,16818176,11.3698628099587
522,2609,16818176,10.962193928032757
523,2610,16818176,11.691077391925747
524,2611,16818176,12.063823255146689
525,2613,16818176,12.05524510211513
526,2614,16818176,12.197938455379134
527,2615,16818176,11.658142314080294
528,2617,16818176,11.035157546911067
529,2619,16818176,9.444540160495976
530,2620,16818176,11.777260978655075
531,2621,16818176,10.196343953554921
532,2623,16818176,10.609022684449537
533,2629,16818176,12.047775110551399
534,2631,16818176,12.17787123364643
535,2633,16818176,10.908723904112167
536,2635,16818176,10.460788624991059
537,2637,16818176,11.187854605977837
538,2639,16818176,10.91053558245354
539,2640,16818176,12.0654849530959
540,2641,16818176,10.660020650483904
541,2643,16818176,11.208366266756059
542,2645,16818176,11.554333585467717
543,2647,16818176,10.969064795592592
544,2649,16818176,12.328992549020757
545,2651,16818176,11.324539814922677
546,2653,16818176,12.32870333717456
547,2655,16818176,11.94917426655943
548,2661,16818176,10.80465922764648
549,2663,16818176,10.912574440004828
550,2664,16818176,11.412079795510264
551,2665,16818176,10.729442627301546
552,2667,16818176,11.737544605064162
