idx,og Index,data (B),bandwidth (GB/s)
0,2,33562624,10.104208513364451
1,4,33562624,11.074686585465248
2,6,33562624,11.14529694282106
3,9,33562624,12.248529360779669
4,10,33562624,10.8751032422188
5,12,33562624,11.268876326364927
6,14,33562624,11.305807618225046
7,16,33562624,11.32155075577924
8,18,33562624,11.308245546294481
9,20,33562624,11.395726054039224
10,22,33562624,11.355869385230607
11,25,33562624,12.14400301043521
12,26,33562624,11.09119581237649
13,28,33562624,11.503090271291992
14,30,33562624,11.28111820887596
15,32,33562624,11.39696435229487
16,34,33562624,11.382369558950707
17,36,33562624,11.390157040202482
18,38,33562624,11.85157730889943
19,40,33562624,11.957236626470312
20,42,33562624,11.954510872197892
21,44,33562624,11.987987232863091
22,46,33562624,12.002529059870628
23,48,33562624,12.003490611114449
24,50,33562624,12.010500851691216
25,52,33562624,11.950424570088959
26,54,33562624,11.934786257435544
27,56,33562624,11.954647130396625
28,58,33562624,12.046232957223065
29,60,33562624,12.096945327595783
30,62,33562624,11.98374109144922
31,66,33570816,11.761830302321092
32,68,33570816,11.768163352299117
33,70,33570816,11.768691414322538
34,72,33570816,12.14232762437174
35,74,33570816,11.666218725337599
36,76,33570816,11.792105698536192
37,78,33570816,11.827068990968032
38,80,33570816,11.619057837412596
39,82,33570816,11.836009151265598
40,84,33570816,11.792370799048062
41,86,33570816,11.749974187085703
42,88,33570816,12.181523143242812
43,90,33570816,11.556978789311104
44,92,33570816,11.781383269929952
45,94,33570816,11.546163238212504
46,97,33570816,12.177144305990378
47,98,33570816,11.38996852143006
48,100,33570816,11.756953226534558
49,102,33570816,12.00092230047477
50,104,33570816,12.104221411367668
51,106,33570816,12.186338636941967
52,108,33570816,12.030653230314933
53,110,33570816,12.061914165236661
54,112,33570816,12.04045667262518
55,114,33570816,12.11918315008794
56,116,33570816,12.093616800532581
57,118,33570816,12.09348174656324
58,120,33570816,12.033137099156088
59,122,33570816,12.122263980887947
60,124,33570816,12.052629613779516
61,126,33570816,12.081221839957392
62,131,33579008,12.342723220406455
63,132,33579008,11.360309734902486
64,134,33579008,11.70708006408055
65,136,33579008,12.14937295733085
66,139,33579008,12.076103999976983
67,140,33579008,11.016232527453637
68,142,33579008,11.609930760172128
69,144,33579008,11.548857616400825
70,146,33579008,11.446933815132352
71,148,33579008,11.45655694022421
72,150,33579008,11.702771491931367
73,152,33579008,11.94428208404356
74,155,33579008,12.13307756040612
75,157,33579008,12.343884762498185
76,158,33579008,12.054601274565835
77,160,33579008,12.158377869505395
78,162,33579008,11.58199956471366
79,164,33579008,11.61263289819833
80,166,33579008,11.885562508472873
81,168,33579008,12.003855074370334
82,170,33579008,12.020768836435389
83,172,33579008,12.044915446356574
84,174,33579008,11.997541824709234
85,176,33579008,11.963619262067295
86,178,33579008,12.013474951987613
87,180,33579008,11.997130321695511
88,182,33579008,12.0900174838771
89,184,33579008,11.984113977358707
90,186,33579008,11.992742711997098
91,188,33579008,11.946729815193786
92,190,33579008,12.071658446096547
93,194,33587200,11.685686919254879
94,196,33587200,11.509742117790905
95,198,33587200,11.684386041995634
96,200,33587200,12.12173707171585
97,202,33587200,11.966265073976851
98,204,33587200,11.36948175349017
99,206,33587200,11.561472818291437
100,208,33587200,11.555744860636558
101,210,33587200,11.52693285267839
102,212,33587200,11.587123180111128
103,214,33587200,11.487445524995058
104,216,33587200,11.943389517104047
105,218,33587200,12.03348877736154
106,220,33587200,12.07710430252594
107,222,33587200,12.181956072389847
108,224,33587200,12.079328133406603
109,226,33587200,11.476392333308503
110,228,33587200,11.439119669501425
111,230,33587200,11.659206212281893
112,232,33587200,11.886846474189166
113,234,33587200,11.957812709163461
114,236,33587200,11.977325699157559
115,238,33587200,12.020396652475284
116,240,33587200,12.035144548438419
117,242,33587200,11.817653083735703
118,244,33587200,11.906267635790268
119,246,33587200,12.064887854361539
120,248,33587200,11.961219483705175
121,250,33587200,12.038599850392067
122,252,33587200,11.95522485811998
123,254,33587200,12.01943309638392
124,258,33595392,11.865021110979653
125,260,33595392,11.544070379006703
126,263,33595392,12.01851104566802
127,264,33595392,11.898100044871907
128,266,33595392,11.900127235476312
129,269,33595392,11.976556952061534
130,271,33595392,12.345986397707742
131,272,33595392,11.451644593093848
132,274,33595392,11.66399341727237
133,276,33595392,11.463398422065156
134,278,33595392,11.4422838116478
135,280,33595392,12.09173704351031
136,282,33595392,12.063393208527117
137,284,33595392,12.144473994427958
138,286,33595392,12.219105518810364
139,288,33595392,12.058409471456953
140,290,33595392,11.41652728210642
141,292,33595392,11.610974843930205
142,294,33595392,11.895403814062083
143,296,33595392,11.857119058980317
144,298,33595392,12.037941917563186
145,300,33595392,12.009574659753541
146,302,33595392,12.075603647332507
147,304,33595392,11.988729048963547
148,306,33595392,12.015897496058532
149,308,33595392,11.997081738115636
150,310,33595392,11.976962575057906
151,312,33595392,11.970416189358051
152,314,33595392,12.036975782295766
153,316,33595392,12.052175859624551
154,318,33595392,11.958685617138578
155,322,33603584,11.77714412285055
156,324,33603584,11.380945317003418
157,326,33603584,12.139571396006579
158,328,33603584,11.978384174249792
159,330,33603584,11.893726728299804
160,332,33603584,12.045849643681622
161,334,33603584,11.588042140110696
162,336,33603584,11.32790865285753
163,338,33603584,11.31643368300527
164,341,33603584,11.295254011908499
165,342,33603584,10.738065481792132
166,344,33603584,11.786789890959268
167,346,33603584,11.962828052687788
168,348,33603584,12.105281662742476
169,350,33603584,12.124713917939596
170,352,33603584,12.04985814239692
171,354,33603584,11.340872634321853
172,356,33603584,10.905789545254361
173,358,33603584,11.554127030954193
174,360,33603584,11.827683401053678
175,362,33603584,11.91897099175125
176,364,33603584,12.02818877660595
177,366,33603584,11.973194307068278
178,368,33603584,11.980024014534212
179,370,33603584,11.82941549206528
180,372,33603584,11.825548131357973
181,374,33603584,11.952071613727481
182,376,33603584,12.0035778277556
183,378,33603584,11.87355028283243
184,380,33603584,12.007146348644623
185,382,33603584,11.916536402554406
186,386,33611776,11.887874372214755
187,389,33611776,12.043122203463192
188,390,33611776,11.980484355262295
189,392,33611776,12.068444319334056
190,394,33611776,11.911597299424582
191,396,33611776,12.057499863683194
192,399,33611776,12.344027987622102
193,400,33611776,11.104154505104965
194,402,33611776,11.449486282121418
195,404,33611776,12.01377812106718
196,406,33611776,11.491955884982575
197,408,33611776,12.059576397918443
198,410,33611776,12.154750987227517
199,412,33611776,12.134110029371588
200,414,33611776,12.064844484439112
201,417,33611776,12.345188642585823
202,419,33611776,12.195540680918597
203,421,33611776,12.148850799681783
204,422,33611776,11.41340700551251
205,424,33611776,11.762729480965927
206,426,33611776,11.93433444835291
207,428,33611776,11.976386279869903
208,430,33611776,11.918494710893375
209,432,33611776,12.009524217867913
210,434,33611776,11.94981697587836
211,436,33611776,11.913759008838968
212,438,33611776,12.01130954593145
213,440,33611776,11.99896045442992
214,442,33611776,12.018731209433115
215,444,33611776,11.964649727668206
216,447,33611776,12.32649513659096
217,450,33619968,11.604709127792407
218,453,33619968,12.342970429342667
219,454,33619968,11.951233800766131
220,456,33619968,11.972616086767006
221,458,33619968,11.915180280180662
222,460,33619968,12.141560181134048
223,462,33619968,11.971656843987654
224,464,33619968,11.409246181360356
225,466,33619968,11.536151560881908
226,468,33619968,12.180830065302644
227,470,33619968,11.724499798953582
228,472,33619968,12.14324418526953
229,474,33619968,12.213260736654311
230,476,33619968,12.138048956603365
231,478,33619968,12.211841138397487
232,480,33619968,12.116770895503024
233,482,33619968,12.091808637055495
234,484,33619968,12.130341035373581
235,486,33619968,11.840647693202257
236,488,33619968,11.954089426060936
237,490,33619968,12.019872493414448
238,492,33619968,11.991610857946714
239,494,33619968,12.051999300252081
240,496,33619968,12.034191166995502
241,498,33619968,11.964299237301887
242,500,33619968,11.854943590231828
243,502,33619968,11.929110783649651
244,504,33619968,12.027302933777507
245,506,33619968,12.091530310136179
246,508,33619968,12.01217654271937
247,510,33619968,12.037914094613368
248,514,33628160,11.847404966317779
249,516,33628160,11.985230593770048
250,518,33628160,12.163209324262933
251,520,33628160,12.089467674812555
252,522,33628160,11.909034504446566
253,524,33628160,12.117910877492136
254,526,33628160,11.995628115894881
255,528,33628160,11.623585382723082
256,530,33628160,11.440103038001727
257,532,33628160,12.163913268687079
258,534,33628160,11.625385589471795
259,536,33628160,12.098658209494891
260,538,33628160,12.164054067349792
261,540,33628160,12.10855156083917
262,542,33628160,12.181401607975035
263,544,33628160,12.12307887534356
264,546,33628160,12.115252146494852
265,548,33628160,12.070443849084993
266,550,33628160,11.832864227079565
267,552,33628160,11.978673019545932
268,554,33628160,12.077935138334583
269,556,33628160,12.03285080023015
270,558,33628160,11.997408446523522
271,560,33628160,12.029820419260213
272,562,33628160,12.01345523448061
273,564,33628160,12.019226095335585
274,566,33628160,12.057287259522301
275,568,33628160,11.969395396780651
276,570,33628160,12.028856527201082
277,572,33628160,12.04126121119587
278,574,33628160,11.994806603033286
279,578,33636352,11.853899295067588
280,580,33636352,12.050960598686718
281,582,33636352,12.10759506428808
282,584,33636352,12.090326402328035
283,586,33636352,11.975584816558575
284,588,33636352,12.11052448146644
285,590,33636352,12.0610547754622
286,592,33636352,11.709827957565722
287,594,33636352,11.451121320494249
288,596,33636352,12.147332352966668
289,598,33636352,11.564503164080415
290,600,33636352,12.096870332588525
291,602,33636352,12.127711003233445
292,604,33636352,12.14564803554251
293,606,33636352,12.216509912281467
294,608,33636352,12.117369669211087
295,610,33636352,12.100486662119499
296,612,33636352,12.049717280967979
297,614,33636352,11.865942638666496
298,616,33636352,11.942246372823828
299,618,33636352,12.01404695844489
300,620,33636352,11.980088955752919
301,622,33636352,12.055664214054975
302,624,33636352,12.000742100200652
303,626,33636352,12.033715229380904
304,628,33636352,12.006087932358845
305,630,33636352,12.004716752179213
306,632,33636352,11.987872545542997
307,634,33636352,11.983776681402183
308,636,33636352,11.752772281413685
309,638,33636352,11.899525134812823
310,642,33644544,11.800362310580486
311,644,33644544,11.944209189976739
312,646,33644544,12.049889259139345
313,648,33644544,12.075492501572043
314,650,33644544,11.91064821780373
315,652,33644544,12.028246115301123
316,654,33644544,11.973181418310087
317,656,33644544,11.429377414061943
318,658,33644544,11.411637891560666
319,660,33644544,12.015599598867457
320,662,33644544,11.427017238064897
321,664,33644544,12.064407489536508
322,666,33644544,12.203462718269751
323,668,33644544,12.123530887045861
324,670,33644544,12.160408974066117
325,672,33644544,12.089655469794316
326,674,33644544,12.071471831774252
327,676,33644544,12.02714536152348
328,678,33644544,11.776966538540028
329,680,33644544,11.831302227493936
330,682,33644544,12.009972213734354
331,684,33644544,11.99024943763204
332,686,33644544,11.939597486919318
333,688,33644544,11.894886596655175
334,690,33644544,11.9666402041879
335,692,33644544,12.016972931888253
336,694,33644544,11.964184836625943
337,696,33644544,11.847700838770132
338,698,33644544,11.936475589408056
339,700,33644544,11.945566251303042
340,702,33644544,11.91497173940759
341,706,33652736,11.845913562485897
342,708,33652736,11.884471842624952
343,710,33652736,12.088429098955414
344,712,33652736,12.083012342700227
345,714,33652736,11.88997666362228
346,716,33652736,12.088984938313471
347,718,33652736,12.000148340441314
348,720,33652736,11.276475699243818
349,722,33652736,11.251381567355525
350,724,33652736,12.040128112290022
351,726,33652736,11.391172542093138
352,728,33652736,12.011112856021128
353,730,33652736,12.01811319892235
354,732,33652736,12.164359120521468
355,734,33652736,12.18069836600077
356,736,33652736,12.101644107535853
357,738,33652736,12.056277639411544
358,740,33652736,12.051990171532612
359,742,33652736,11.69000285539409
360,744,33652736,11.827528240540767
361,746,33652736,11.969281460467949
362,748,33652736,12.061532109381496
363,750,33652736,11.98878952282797
364,752,33652736,12.002476624714317
365,754,33652736,12.039994576181925
366,756,33652736,11.978688566603925
367,758,33652736,11.994669310863364
368,760,33652736,11.990023970972606
369,762,33652736,12.02003199604532
370,764,33652736,12.05960004085238
371,766,33652736,11.993168904259171
372,770,33660928,11.71029134373802
373,772,33660928,11.834803911917172
374,774,33660928,12.029699601737146
375,776,33660928,11.93957733075158
376,778,33660928,11.79525322477047
377,780,33660928,12.12147209527517
378,782,33660928,11.955186688980506
379,784,33660928,11.09072895315433
380,786,33660928,11.368946945701435
381,788,33660928,12.027636359478487
382,790,33660928,11.415955987039212
383,792,33660928,11.943644300686262
384,794,33660928,12.079985530255833
385,796,33660928,11.921179307159877
386,798,33660928,12.041542534163268
387,800,33660928,11.908493217369648
388,802,33660928,11.906740883069547
389,804,33660928,11.940530278306719
390,806,33660928,11.581748685734851
391,808,33660928,11.735509955907634
392,810,33660928,11.780194490338651
393,812,33660928,11.882929191908959
394,814,33660928,11.827480953045212
395,816,33660928,11.866574867174526
396,818,33660928,11.966066507597496
397,820,33660928,11.815789686146035
398,822,33660928,11.89811731446465
399,824,33660928,11.803194348648894
400,826,33660928,11.72700589504445
401,828,33660928,11.97383046718706
402,830,33660928,11.706381714899386
403,834,33669120,11.811633377243682
404,836,33669120,11.24519303026963
405,838,33669120,11.96122288315992
406,840,33669120,12.030150839953007
407,842,33669120,11.837546782736489
408,844,33669120,12.093758351269106
409,846,33669120,11.916243641348146
410,848,33669120,11.455284436669029
411,850,33669120,11.516598085191532
412,852,33669120,12.117161292737324
413,854,33669120,11.551241576499214
414,856,33669120,12.047369189416644
415,858,33669120,12.136729399372998
416,860,33669120,12.145135091556224
417,862,33669120,12.101130283016426
418,864,33669120,12.080428261836762
419,866,33669120,12.004073006066726
420,868,33669120,12.068373225361523
421,870,33669120,11.859562484479488
422,872,33669120,11.915573109100947
423,874,33669120,12.01380463979767
424,876,33669120,12.022173938659245
425,878,33669120,12.028775497955019
426,880,33669120,11.974427332140246
427,882,33669120,12.060902882656205
428,884,33669120,12.028500467291055
429,886,33669120,12.024513935515207
430,888,33669120,11.993942669094254
431,890,33669120,12.039787047182037
432,892,33669120,12.073497138431085
433,894,33669120,11.979062598731119
