idx,og Index,data (B),bandwidth (GB/s)
0,2,8192,1.024
1,3,8192,1.3063307287513952
2,4,8192,1.3195876288659794
3,5,8192,1.3264248704663213
4,6,8192,1.3063307287513952
5,7,8192,1.248780487804878
6,8,8192,1.4143646408839778
7,9,8192,1.3264248704663213
8,10,8192,1.3128205128205128
9,11,8192,1.3198002255517964
10,12,8192,1.3059142356129443
11,13,8192,1.1377777777777778
12,14,8192,1.3128205128205128
13,15,8192,1
14,16,8192,1.3195876288659794
15,17,8192,1.3128205128205128
16,18,8192,1.3061224489795917
17,19,8192,1.3264248704663213
18,20,8192,1.3128205128205128
19,21,8192,1.3195876288659794
20,26,8192,1.4065934065934067
21,27,8192,1.3061224489795917
22,28,8192,1.3264248704663213
23,29,8192,1.2673267326732673
24,30,8192,1.299492385786802
25,31,8192,1.2673267326732673
26,32,8192,1.3195876288659794
27,33,8192,1.3061224489795917
28,34,8192,1.3195876288659794
29,35,8192,1.3061224489795917
30,36,8192,1.3195876288659794
31,37,8192,1.3266396761133603
32,38,8192,1.3061224489795917
33,39,8192,1.3195876288659794
34,40,8192,1.2736318407960199
35,41,8192,1.3195876288659794
36,42,8192,1.0709896718525298
37,43,8192,1.0847457627118644
38,44,8192,1.299492385786802
39,45,8192,1.1130434782608696
40,46,8192,1.299492385786802
41,47,8192,1.3195876288659794
42,48,8192,1.299492385786802
43,49,8192,1.3333333333333333
44,50,8192,1.3059142356129443
45,51,8192,1.3195876288659794
46,52,8192,1.292929292929293
47,53,8192,1.299492385786802
48,59,8192,1.3061224489795917
49,60,8192,1.3195876288659794
50,61,8192,1.292929292929293
51,63,8192,1.3264248704663213
52,64,8192,1.3128205128205128
53,65,8192,1.3333333333333333
54,66,8192,1.2864321608040201
55,67,8192,1.3195876288659794
56,68,8192,1.2864321608040201
57,69,8192,1.3061224489795917
58,70,8192,1.3061224489795917
59,71,8192,1.2992862807295797
60,72,8192,1.299492385786802
61,73,8192,1.032258064516129
62,74,8192,1.3061224489795917
63,75,8192,1.0321280080635
64,76,8192,1.2864321608040201
65,77,8192,1.1743119266055047
66,79,8192,0.8421052631578947
67,80,8192,1.292929292929293
68,81,8192,1.3264248704663213
69,82,8192,1.3061224489795917
70,83,8192,1.292929292929293
71,84,8192,1.3617021276595744
72,85,8192,1.3195876288659794
73,90,8192,1.299492385786802
74,91,8192,1.3061224489795917
75,92,8192,1.3264248704663213
76,93,8192,1.3128205128205128
77,94,8192,1.3264248704663213
78,95,8192,1.3195876288659794
79,96,8192,1.3264248704663213
80,97,8192,1.3195876288659794
81,99,8192,1.3195876288659794
82,100,8192,1.3195876288659794
83,101,8192,1.2864321608040201
84,102,8192,0.7949539058709364
85,103,8192,1.2549019607843137
86,104,8192,1.3195876288659794
87,105,8192,1.3061224489795917
88,107,8192,1.28
89,109,8192,1.3128205128205128
90,110,8192,1.3195876288659794
91,111,8192,1.299492385786802
92,112,8192,1.3195876288659794
93,113,8192,1.2427184466019416
94,114,8192,1.3195876288659794
95,115,8192,1.2931333859510654
96,116,8192,1.3333333333333333
97,117,8192,1.28
98,123,8192,1.3061224489795917
99,125,8192,1.3128205128205128
100,126,8192,1.299492385786802
101,127,8192,1.3061224489795917
102,128,8192,1.3264248704663213
103,129,8192,1.299492385786802
104,130,8192,1.312610158628425
105,131,8192,1.2736318407960199
106,132,8192,1.3837837837837839
107,133,8192,1.292929292929293
108,134,8192,1.3195876288659794
109,135,8192,1.2864321608040201
110,136,8192,1.28
111,137,8192,1.3061224489795917
112,138,8192,1.3128205128205128
113,139,8192,1.3264248704663213
114,140,8192,1.299492385786802
115,141,8192,1.2931333859510654
116,143,8192,1.3061224489795917
117,144,8192,1.3061224489795917
118,145,8192,1.292929292929293
119,147,8192,1.3061224489795917
120,148,8192,1.292929292929293
121,149,8192,1.3193751006603318
122,154,8192,1.299492385786802
123,155,8192,1.2864321608040201
124,156,8192,1.2992862807295797
125,157,8192,1.3128205128205128
126,158,8192,1.3195876288659794
127,159,8192,1.3061224489795917
128,160,8192,1.3128205128205128
129,161,8192,1.3128205128205128
130,162,8192,1.3195876288659794
131,163,8192,1.0893617021276596
132,164,8192,1.3128205128205128
133,165,8192,1.2190476190476192
134,166,8192,1.3195876288659794
135,167,8192,1.3128205128205128
136,168,8192,1.3061224489795917
137,169,8192,1.299492385786802
138,170,8192,1.326210134369435
139,171,8192,1.3195876288659794
140,172,8192,1.3195876288659794
141,173,8192,1.3061224489795917
142,174,8192,1.2864321608040201
143,175,8192,0.9961089494163424
144,176,8192,1.3195876288659794
145,177,8192,1.2075471698113207
146,178,8192,1.3128205128205128
147,179,8192,1.147982062780269
148,180,8192,1.3061224489795917
149,181,8192,1.3689839572192513
150,186,8192,1.3195876288659794
151,187,8192,1.3128205128205128
152,188,8192,1.3195876288659794
153,189,8192,1.3195876288659794
154,190,8192,1.3195876288659794
155,191,8192,1.3333333333333333
156,192,8192,1.3403141361256545
157,193,8192,1.3061224489795917
158,194,8192,1.3128205128205128
159,195,8192,1.3195876288659794
160,196,8192,1.3193751006603318
161,197,8192,1.3264248704663213
162,198,8192,1.299492385786802
163,199,8192,1.3128205128205128
164,200,8192,1.3195876288659794
165,201,8192,1.299492385786802
166,202,8192,1.299492385786802
167,203,8192,1.3193751006603318
168,204,8192,1.2864321608040201
169,205,8192,1.3198002255517964
170,206,8192,1.3059142356129443
171,207,8192,1.3195876288659794
172,209,8192,1.3128205128205128
173,210,8192,1.3195876288659794
174,211,8192,1.3195876288659794
175,212,8192,1.3128205128205128
176,213,8192,1.2673267326732673
177,218,8192,1.3195876288659794
178,219,8192,1.312610158628425
179,221,8192,1.3128205128205128
180,222,8192,1.2307692307692308
181,223,8192,1.3264248704663213
182,224,8192,1.3689839572192513
183,225,8192,1.299492385786802
184,226,8192,1.3195876288659794
185,227,8192,1.0078740157480315
186,228,8192,0.9516728624535316
187,229,8192,1.3128205128205128
188,230,8192,1.3264248704663213
189,231,8192,1.3128205128205128
190,232,8192,1.3061224489795917
191,233,8192,1.2612779060816013
192,235,8192,1.3061224489795917
193,236,8192,1.3061224489795917
194,237,8192,1.3193751006603318
195,239,8192,1.292929292929293
196,240,8192,1.2673267326732673
197,241,8192,1.3195876288659794
198,242,8192,1.3837837837837839
199,243,8192,1.3264248704663213
200,245,8192,1.3061224489795917
201,250,8192,1.3264248704663213
202,251,8192,1.3195876288659794
203,252,8192,1.3061224489795917
204,253,8192,1.3128205128205128
205,254,8192,1.2864321608040201
206,255,8192,1.3195876288659794
207,256,8192,1.299492385786802
208,257,8192,1.292929292929293
209,258,8192,1.299492385786802
210,259,8192,1.3061224489795917
211,260,8192,1.3264248704663213
212,261,8192,1.3266396761133603
213,262,8192,1.3059142356129443
214,263,8192,1.326210134369435
215,264,8192,1.3195876288659794
216,265,8192,1.326210134369435
217,266,8192,1.3061224489795917
218,267,8192,1.3063307287513952
219,268,8192,1.3195876288659794
220,269,8192,1.3264248704663213
221,270,8192,1.3195876288659794
222,271,8192,1.3128205128205128
223,272,8192,1.3264248704663213
224,273,8192,1.3193751006603318
225,274,8192,0.924187725631769
226,275,8192,1.147982062780269
227,276,8192,1.326210134369435
228,277,8192,1.299492385786802
229,282,8192,1.0756302521008403
230,283,8192,1.3193751006603318
231,284,8192,0.847682119205298
232,285,8192,0.8178913738019169
233,286,8192,1.3195876288659794
234,287,8192,1.326210134369435
235,288,8192,1.3061224489795917
236,289,8192,1.2673267326732673
237,290,8192,1.3333333333333333
238,291,8192,1.0940170940170941
239,292,8192,1.292929292929293
240,293,8192,1.3195876288659794
241,294,8192,1.2367149758454106
242,295,8192,1.3061224489795917
243,296,8192,1.3195876288659794
244,297,8192,1.312610158628425
245,298,8192,1.3061224489795917
246,299,8192,1.299492385786802
247,300,8192,1.3128205128205128
248,301,8192,1.299492385786802
249,302,8192,1.3264248704663213
250,303,8192,1.158371040723982
251,304,8192,1.3195876288659794
252,305,8192,1.3264248704663213
253,306,8192,1.2190476190476192
254,307,8192,1.3195876288659794
255,308,8192,1.3195876288659794
256,309,8192,1.3264248704663213
257,314,8192,1.292929292929293
258,315,8192,1.122960932145305
259,317,8192,1.3195876288659794
260,318,8192,1.292929292929293
261,319,8192,1.3195876288659794
262,321,8192,1.3264248704663213
263,322,8192,1.4222222222222223
264,323,8192,0.7463556851311953
265,324,8192,1.3195876288659794
266,325,8192,1.3264248704663213
267,326,8192,1.3195876288659794
268,327,8192,1.3763440860215055
269,328,8192,1.3128205128205128
270,329,8192,1.2864321608040201
271,330,8192,1.326210134369435
272,331,8192,1.3264248704663213
273,332,8192,1.3193751006603318
274,333,8192,1.3195876288659794
275,334,8192,1.3128205128205128
276,335,8192,1.3333333333333333
277,336,8192,1.3264248704663213
278,337,8192,1.3195876288659794
279,338,8192,1.299492385786802
280,339,8192,1.3061224489795917
281,340,8192,1.3061224489795917
282,341,8192,1.3264248704663213
283,346,8192,1.3195876288659794
284,347,8192,1.3061224489795917
285,348,8192,1.3266396761133603
286,349,8192,1.1689497716894977
287,350,8192,1.1906976744186046
288,351,8192,1.3128205128205128
289,352,8192,1.299492385786802
290,353,8192,1.3128205128205128
291,354,8192,1.4065934065934067
292,355,8192,1.3128205128205128
293,356,8192,1.3128205128205128
294,357,8192,1.326210134369435
295,358,8192,1.299492385786802
296,359,8192,1.3061224489795917
297,361,8192,1.3264248704663213
298,362,8192,1.2927252643206564
299,363,8192,1.3059142356129443
300,364,8192,1.292929292929293
301,365,8192,1.3195876288659794
302,366,8192,1.3061224489795917
303,367,8192,1.292929292929293
304,368,8192,1.3195876288659794
305,369,8192,1.299492385786802
306,370,8192,1.299492385786802
307,371,8192,1.3061224489795917
308,372,8192,1.299492385786802
309,373,8192,1.3128205128205128
310,378,8192,1.3195876288659794
311,379,8192,1.3193751006603318
312,380,8192,1.2734338566765118
313,381,8192,1.1636363636363636
314,382,8192,1.2992862807295797
315,383,8192,1.3195876288659794
316,384,8192,1.2610837438423645
317,385,8192,1.3128205128205128
318,386,8192,1.3264248704663213
319,387,8192,1.3264248704663213
320,389,8192,1.3195876288659794
321,390,8192,1.292929292929293
322,391,8192,1.0666666666666667
323,392,8192,1.3763440860215055
324,393,8192,1.0405182268512638
325,395,8192,1.2864321608040201
326,396,8192,1.3266396761133603
327,397,8192,1.3061224489795917
328,398,8192,1.292929292929293
329,399,8192,1.3264248704663213
330,401,8192,1.326210134369435
331,402,8192,1.3061224489795917
332,403,8192,1.28
333,404,8192,1.6623376623376624
334,405,8192,1.2927252643206564
335,410,8192,1.3061224489795917
336,411,8192,1.3128205128205128
337,413,8192,1.326210134369435
338,414,8192,1.2673267326732673
339,415,8192,1.292929292929293
340,416,8192,1.3061224489795917
341,417,8192,1.0666666666666667
342,419,8192,1.2864321608040201
343,420,8192,1.3333333333333333
344,421,8192,0.8448844884488449
345,423,8192,1.292929292929293
346,424,8192,1.3061224489795917
347,425,8192,1.3193751006603318
348,426,8192,1.299492385786802
349,427,8192,1.3195876288659794
350,428,8192,1.299492385786802
351,429,8192,1.3128205128205128
352,430,8192,1.3128205128205128
353,431,8192,1.3195876288659794
354,432,8192,1.299492385786802
355,433,8192,1.2673267326732673
356,434,8192,1.3128205128205128
357,435,8192,1.1277533039647578
358,436,8192,1.1636363636363636
359,437,8192,1.3193751006603318
360,442,8192,1.326210134369435
361,443,8192,1.3195876288659794
362,444,8192,1.2549019607843137
363,445,8192,1.2866342076331083
364,447,8192,1.3195876288659794
365,448,8192,1.3128205128205128
366,449,8192,1.1797235023041475
367,450,8192,1.299492385786802
368,451,8192,1.326210134369435
369,452,8192,1.2367149758454106
370,453,8192,1.1179039301310043
371,454,8192,1.3128205128205128
372,455,8192,1.3128205128205128
373,456,8192,1.3195876288659794
374,457,8192,1.3195876288659794
375,458,8192,1.326210134369435
376,459,8192,1.3061224489795917
377,460,8192,1.3333333333333333
378,461,8192,1.3195876288659794
379,462,8192,1.248780487804878
380,463,8192,1.0407826197433616
381,464,8192,1.292929292929293
382,465,8192,0.8981471329898038
383,467,8192,1.3061224489795917
384,468,8192,1.312610158628425
385,469,8192,1.3061224489795917
386,474,8192,1.855072463768116
387,475,8192,1.3061224489795917
388,476,8192,1.2864321608040201
389,477,8192,1.2018779342723005
390,479,8192,1.292929292929293
391,480,8192,1.299492385786802
392,481,8192,1.0491803278688525
393,483,8192,1.3061224489795917
394,484,8192,1.312610158628425
395,485,8192,0.7734138972809668
396,486,8192,1.3195876288659794
397,487,8192,1.292929292929293
398,489,8192,0.973384030418251
399,490,8192,1.3195876288659794
400,491,8192,1.299492385786802
401,492,8192,1.3198002255517964
402,493,8192,1.3061224489795917
403,494,8192,1.299492385786802
404,495,8192,1.3128205128205128
405,496,8192,1.28
406,497,8192,0.9207598066764078
407,498,8192,1.3195876288659794
408,499,8192,1.2864321608040201
409,500,8192,1.3061224489795917
410,501,8192,1.3195876288659794
411,506,8192,1.3061224489795917
412,507,8192,1.2992862807295797
413,508,8192,1.3063307287513952
414,509,8192,1.3061224489795917
415,510,8192,1.3128205128205128
416,511,8192,1.3195876288659794
417,512,8192,1.3061224489795917
418,513,8192,1.3061224489795917
419,514,8192,1.3128205128205128
420,515,8192,1.3333333333333333
421,516,8192,1.3061224489795917
422,517,8192,1.3061224489795917
423,518,8192,1.3264248704663213
424,519,8192,1.3333333333333333
425,520,8192,1.326210134369435
426,521,8192,1.3193751006603318
427,522,8192,1.2864321608040201
428,523,8192,0.8392582727179593
429,524,8192,1.3264248704663213
430,525,8192,1.3128205128205128
431,526,8192,1.299492385786802
432,527,8192,1.3128205128205128
433,528,8192,1.326210134369435
434,529,8192,0.89198606271777
435,1044,8192,1.2671307037896364
436,1045,8192,1.2610837438423645
437,1046,8192,1.2248803827751196
438,1047,8192,1.2367149758454106
439,1048,8192,1.3195876288659794
440,1049,8192,1.3128205128205128
441,1051,8192,0.7876923076923077
442,1052,8192,1.152990851513019
443,1053,8192,1.299492385786802
444,1054,8192,1.3061224489795917
445,1055,8192,0.8827586206896552
446,1056,8192,1.3061224489795917
447,1057,8192,1.3128205128205128
448,1058,8192,1.312610158628425
449,1059,8192,1.326210134369435
450,1064,8192,1.3128205128205128
451,1065,8192,1.1582072670719639
452,1066,8192,1.2248803827751196
453,1067,8192,1.248780487804878
454,1068,8192,1.3061224489795917
455,1069,8192,1.3195876288659794
456,1070,8192,1.28
457,1071,8192,1.3061224489795917
458,1073,8192,1.3264248704663213
459,1074,8192,1.326210134369435
460,1075,8192,1.3128205128205128
461,1076,8192,1.3061224489795917
462,1077,8192,1.1797235023041475
463,1078,8192,1.3331163547599674
464,1079,8192,1.3264248704663213
465,1080,8192,1.2864321608040201
466,1081,8192,1.3195876288659794
467,1082,8192,1.3128205128205128
468,1083,8192,1.2862301774218872
469,1084,8192,1.3195876288659794
470,1085,8192,1.2132701421800949
471,1086,8192,1.2610837438423645
472,1087,8192,1.3264248704663213
473,1088,8192,1.3264248704663213
474,1089,8192,1.1428571428571428
475,1090,8192,1.299492385786802
476,1091,8192,1.326210134369435
477,1096,8192,1.3331163547599674
478,1097,8192,1.3061224489795917
479,1099,8192,1.3128205128205128
480,1101,8192,1.3195876288659794
481,1102,8192,1.2862301774218872
482,1103,8192,1.3061224489795917
483,1105,8192,1.3264248704663213
484,1106,8192,1.299492385786802
485,1107,8192,1.3195876288659794
486,1108,8192,1.2931333859510654
487,1109,8192,1.2132701421800949
488,1110,8192,1.3128205128205128
489,1111,8192,1.2673267326732673
490,1112,8192,0.7975077881619937
491,1113,8192,1.1962616822429906
492,1115,8192,1.3989071038251366
493,1116,8192,1.3195876288659794
494,1117,8192,1.3128205128205128
495,1118,8192,1.3195876288659794
496,1119,8192,1.3333333333333333
497,1120,8192,1.312610158628425
498,1121,8192,1.3061224489795917
499,1122,8192,1.326210134369435
500,1123,8192,1.147982062780269
501,1128,8192,1.3061224489795917
502,1129,8192,1.299492385786802
503,1130,8192,1.3689839572192513
504,1131,8192,1.292929292929293
505,1132,8192,1.3264248704663213
506,1133,8192,1.3061224489795917
507,1134,8192,1.0578512396694215
508,1135,8192,1.2992862807295797
509,1136,8192,1.3264248704663213
510,1137,8192,0.9411764705882353
511,1138,8192,1.3128205128205128
512,1139,8192,1.1851851851851851
513,1140,8192,1.3264248704663213
514,1141,8192,0.9770992366412213
515,1142,8192,1.3195876288659794
516,1143,8192,1.3128205128205128
517,1144,8192,1.4222222222222223
518,1145,8192,0.9377289377289377
519,1146,8192,1.3128205128205128
520,1147,8192,1.3193751006603318
521,1148,8192,1.2427184466019416
522,1149,8192,1.3128205128205128
523,1150,8192,1.3061224489795917
524,1151,8192,1.3195876288659794
525,1152,8192,1.3264248704663213
526,1153,8192,1.2018779342723005
527,1155,8192,0.8258064516129032
528,1160,8192,1.3333333333333333
529,1161,8192,1.3128205128205128
530,1162,8192,1.3195876288659794
531,1163,8192,1.3128205128205128
532,1164,8192,0.8152866242038217
533,1165,8192,0.9078014184397163
534,1166,8192,1.292929292929293
535,1167,8192,1.3264248704663213
536,1168,8192,1.299492385786802
537,1169,8192,1.3128205128205128
538,1170,8192,1.3333333333333333
539,1171,8192,1.032258064516129
540,1172,8192,1.292929292929293
541,1173,8192,1.3198002255517964
542,1175,8192,1.3128205128205128
543,1176,8192,1.3264248704663213
544,1177,8192,1.3128205128205128
545,1178,8192,1.2132701421800949
546,1179,8192,1.3128205128205128
547,1180,8192,1.3195876288659794
548,1181,8192,1.2992862807295797
549,1182,8192,1.2673267326732673
550,1183,8192,1.3059142356129443
551,1184,8192,1.3128205128205128
552,1185,8192,0.8025078369905956
553,1187,8192,0.8951048951048951
554,1192,8192,1.3333333333333333
555,1193,8192,0.8337913486005089
556,1194,8192,1.3128205128205128
557,1195,8192,1.2864321608040201
558,1196,8192,1.299492385786802
559,1197,8192,1.3195876288659794
560,1198,8192,1.299492385786802
561,1199,8192,1.299492385786802
562,1200,8192,1.3195876288659794
563,1201,8192,1.1689497716894977
564,1202,8192,1.3061224489795917
565,1203,8192,1.28
566,1204,8192,1.3128205128205128
567,1205,8192,1.3264248704663213
568,1206,8192,1.299492385786802
569,1207,8192,0.8737201365187713
570,1208,8192,1.3195876288659794
571,1209,8192,0.7664670658682635
572,1210,8192,1.3403141361256545
573,1211,8192,1.0158730158730158
574,1212,8192,1.0987124463519313
575,1213,8192,1.3333333333333333
576,1214,8192,1.326210134369435
577,1215,8192,1.3264248704663213
578,1216,8192,1.3195876288659794
579,1217,8192,1.3195876288659794
580,1218,8192,1.3195876288659794
581,1219,8192,1.3128205128205128
582,1224,8192,1.3061224489795917
583,1225,8192,1.3061224489795917
584,1226,8192,1.2927252643206564
585,1227,8192,0.7150837988826816
586,1228,8192,1.2736318407960199
587,1229,8192,1.3128205128205128
588,1230,8192,1.3195876288659794
589,1231,8192,0.7804878048780488
590,1233,8192,0.7950310559006211
591,1234,8192,1.2864321608040201
592,1235,8192,1.3193751006603318
593,1236,8192,1.3128205128205128
594,1237,8192,1.1689497716894977
595,1238,8192,1.1851851851851851
596,1239,8192,1.299492385786802
597,1240,8192,1.299492385786802
598,1241,8192,0.924187725631769
599,1242,8192,0.8561872909698997
600,1243,8192,1.3195876288659794
601,1244,8192,0.847682119205298
602,1245,8192,1.1906976744186046
603,1246,8192,1.2736318407960199
604,1247,8192,1.3128205128205128
605,1248,8192,1.3128205128205128
606,1249,8192,1.3195876288659794
607,1250,8192,1.3061224489795917
608,1251,8192,1.3195876288659794
609,1256,8192,1.2736318407960199
610,1257,8192,1.3059142356129443
611,1259,8192,1.3128205128205128
612,1260,8192,1.2307692307692308
613,1261,8192,1.3333333333333333
614,1262,8192,1.292929292929293
615,1263,8192,0.8858131487889274
616,1264,8192,1.3264248704663213
617,1265,8192,0.9410683515221138
618,1266,8192,1.28
619,1267,8192,1.2248803827751196
620,1268,8192,1.4143646408839778
621,1269,8192,0.7828746177370031
622,1270,8192,0.7781155015197568
623,1271,8192,1.299492385786802
624,1272,8192,1.3195876288659794
625,1273,8192,1.292929292929293
626,1274,8192,1.28
627,1275,8192,1.3195876288659794
628,1276,8192,1.3195876288659794
629,1277,8192,0.7334586802757632
630,1278,8192,1.299492385786802
631,1279,8192,1.2134498592801066
