idx,og Index,data (B),bandwidth (GB/s)
0,2,8192,2.4158065467413743
1,3,8192,2.4854368932038833
2,4,8192,0.9922480620155039
3,5,8192,2.4150943396226414
4,6,8192,2.4854368932038833
5,7,8192,1.1228070175438596
6,8,8192,2.4854368932038833
7,9,8192,1.103448275862069
8,10,8192,0.8797250859106529
9,11,8192,1.1906976744186046
10,12,8192,2.6391752577319587
11,13,8192,0.7804878048780488
12,18,8192,1.841726618705036
13,19,8192,0.9922480620155039
14,20,8192,0.8858131487889274
15,21,8192,1.4631184140025004
16,22,8192,1.0534979423868314
17,23,8192,2.4150943396226414
18,24,8192,1.1082251082251082
19,25,8192,2.438821077701697
20,26,8192,1.3544973544973544
21,27,8192,2.4380952380952383
22,28,8192,2.6391752577319587
23,29,8192,2.392523364485981
24,34,8192,2.4150943396226414
25,35,8192,2.4380952380952383
26,36,8192,2.4380952380952383
27,37,8192,2.4607990387503755
28,38,8192,2.4380952380952383
29,39,8192,2.5346534653465347
30,40,8192,2.4150943396226414
31,41,8192,2.9767441860465116
32,42,8192,2.4615384615384617
33,43,8192,1.0040446133104548
34,44,8192,2.3279340721795965
35,45,8192,2.265486725663717
36,50,8192,2.5098039215686274
37,51,8192,2.4615384615384617
38,52,8192,2.115702479338843
39,53,8192,2.6391752577319587
40,54,8192,2.4380952380952383
41,55,8192,2.392523364485981
42,56,8192,1.855072463768116
43,57,8192,0.9078014184397163
44,58,8192,2.510573092246399
45,59,8192,2.4150943396226414
46,60,8192,2.4380952380952383
47,61,8192,1.9844961240310077
48,66,8192,1.1377777777777778
49,67,8192,2.4854368932038833
50,68,8192,0.9446494464944649
51,69,8192,2.4150943396226414
52,70,8192,1.0158730158730158
53,71,8192,2.4380952380952383
54,72,8192,2.723404255319149
55,73,8192,2.437369830407617
56,74,8192,2.5098039215686274
57,75,8192,1.4222222222222223
58,76,8192,2.4615384615384617
59,77,8192,2.4380952380952383
60,82,8192,2.3932223196026876
61,83,8192,2.4380952380952383
62,84,8192,2.4380952380952383
63,85,8192,2.4615384615384617
64,86,8192,2.064516129032258
65,87,8192,2.4380952380952383
66,88,8192,0.9846153846153847
67,89,8192,1.1797235023041475
68,90,8192,2.4158065467413743
69,91,8192,2.392523364485981
70,92,8192,2.694736842105263
71,93,8192,2.4615384615384617
72,98,8192,2.8444444444444446
73,99,8192,1.0406504065040652
74,100,8192,2.694736842105263
75,101,8192,2.585858585858586
76,102,8192,2.4380952380952383
77,103,8192,1.1179039301310043
78,104,8192,2.4607990387503755
79,105,8192,1.0364372469635628
80,106,8192,1.4715286509789833
81,107,8192,1.7297297297297298
82,108,8192,1.0534979423868314
83,109,8192,1.3617021276595744
84,114,8192,2.5098039215686274
85,115,8192,0.9377289377289377
86,116,8192,1.2248803827751196
87,117,8192,2.4150943396226414
88,118,8192,2.3703703703703702
89,119,8192,1.9692307692307693
90,120,8192,0.7420289855072464
91,121,8192,1.2736318407960199
92,123,8192,1.4301675977653632
93,124,8192,2.4854368932038833
94,125,8192,2.4150943396226414
95,130,8192,2.392523364485981
96,131,8192,2.4380952380952383
97,132,8192,2.462278328824767
98,133,8192,0.920863309352518
99,134,8192,2.4615384615384617
100,135,8192,2.4607990387503755
101,136,8192,2.4150943396226414
102,137,8192,2.3486238532110093
103,138,8192,2.4615384615384617
104,139,8192,2.4854368932038833
105,140,8192,2.56
106,141,8192,0.7091412742382271
107,146,8192,2.4854368932038833
108,147,8192,1.0847457627118644
109,148,8192,2.6122448979591835
110,149,8192,2.909090909090909
111,150,8192,2.5098039215686274
112,151,8192,2.4854368932038833
113,152,8192,1.3989071038251366
114,153,8192,2.723404255319149
115,154,8192,2.4150943396226414
116,155,8192,1.0893617021276596
117,156,8192,2.5346534653465347
118,157,8192,1.1689497716894977
119,162,8192,2.4150943396226414
120,163,8192,2.4150943396226414
121,164,8192,2.226086956521739
122,165,8192,2.723404255319149
123,166,8192,2.438821077701697
124,167,8192,2.4150943396226414
125,168,8192,2.438821077701697
126,169,8192,0.973384030418251
127,170,8192,1.5058823529411764
128,171,8192,2.4380952380952383
129,172,8192,2.585858585858586
130,173,8192,2.585858585858586
131,178,8192,2.4150943396226414
132,179,8192,2.4615384615384617
133,180,8192,1.0406504065040652
134,181,8192,1.0448979591836736
135,182,8192,2.4854368932038833
136,183,8192,1.1428571428571428
137,184,8192,2.437369830407617
138,185,8192,1.2190476190476192
139,186,8192,2.5098039215686274
140,187,8192,2.4150943396226414
141,188,8192,2.6122448979591835
142,189,8192,1.045031253986478
143,194,8192,1.9248120300751879
144,195,8192,1.062240663900415
145,196,8192,2.4854368932038833
146,197,8192,1.0490459725957229
147,198,8192,2.4615384615384617
148,199,8192,0.9923682616596002
149,200,8192,2.4150943396226414
150,201,8192,2.285076708507671
151,202,8192,1.0666666666666667
152,203,8192,1.0987124463519313
153,204,8192,2.3486238532110093
154,205,8192,1.0119827053736874
155,210,8192,1.0491803278688525
156,211,8192,2.4854368932038833
157,212,8192,2.392523364485981
158,213,8192,0.8858131487889274
159,214,8192,2.4150943396226414
160,215,8192,2.4615384615384617
161,216,8192,2.349297390306854
162,217,8192,1.0078740157480315
163,218,8192,2.327272727272727
164,219,8192,2.4854368932038833
165,220,8192,2.392523364485981
166,221,8192,1.0407826197433616
167,226,8192,2.462278328824767
168,227,8192,2.5098039215686274
169,228,8192,1.2736318407960199
170,229,8192,2.56
171,230,8192,0.9884169884169884
172,231,8192,1.062240663900415
173,233,8192,2.4854368932038833
174,234,8192,0.9240834743372814
175,235,8192,1.1179039301310043
176,236,8192,2.4143825523135867
177,237,8192,1.0847457627118644
178,242,8192,2.4158065467413743
179,243,8192,2.4615384615384617
180,244,8192,2.6391752577319587
181,245,8192,2.462278328824767
182,247,8192,2.4380952380952383
183,248,8192,2.3703703703703702
184,249,8192,2.6391752577319587
185,250,8192,2.4615384615384617
186,251,8192,2.169491525423729
187,252,8192,2.4150943396226414
188,253,8192,0.920863309352518
189,258,8192,2.4615384615384617
190,259,8192,2.265486725663717
191,260,8192,2.6666666666666665
192,261,8192,2.438821077701697
193,262,8192,2.4150943396226414
194,263,8192,2.4854368932038833
195,264,8192,2.4615384615384617
196,265,8192,2.585858585858586
197,266,8192,2.4615384615384617
198,267,8192,2.4615384615384617
199,268,8192,1.532934131736527
200,269,8192,1.0578512396694215
201,274,8192,1.1744802867383513
202,275,8192,2.4380952380952383
203,276,8192,2.510573092246399
204,277,8192,2.4854368932038833
205,278,8192,2.4150943396226414
206,279,8192,0.9624060150375939
207,280,8192,2.4854368932038833
208,281,8192,2.4380952380952383
209,282,8192,2.4854368932038833
210,283,8192,2.4615384615384617
211,284,8192,2.462278328824767
212,285,8192,1.0756302521008403
213,290,8192,2.4380952380952383
214,291,8192,2.4150943396226414
215,292,8192,1.5612731084429197
216,293,8192,0.847682119205298
217,294,8192,0.8421052631578947
218,295,8192,2.4150943396226414
219,296,8192,2.4854368932038833
220,297,8192,0.9922480620155039
221,299,8192,2.347950702206936
222,300,8192,2.4854368932038833
223,301,8192,1.6
224,306,8192,2.4380952380952383
225,307,8192,2.4607990387503755
226,308,8192,2.4615384615384617
227,309,8192,1.8285714285714285
228,310,8192,2.4615384615384617
229,311,8192,1.4545454545454546
230,312,8192,2.4854368932038833
231,313,8192,2.4615384615384617
232,314,8192,2.4615384615384617
233,315,8192,2.4854368932038833
234,317,8192,1.2132701421800949
235,322,8192,2.4150943396226414
236,323,8192,2.4615384615384617
237,324,8192,2.4615384615384617
238,325,8192,2.4854368932038833
239,326,8192,2.4615384615384617
240,327,8192,2.392523364485981
241,328,8192,0.9517834320901591
242,329,8192,2.4380952380952383
243,330,8192,2.4150943396226414
244,331,8192,2.510573092246399
245,332,8192,2.5346534653465347
246,333,8192,2.723404255319149
247,338,8192,2.4380952380952383
248,339,8192,2.4380952380952383
249,340,8192,2.6391752577319587
250,341,8192,2.4607990387503755
251,342,8192,2.4380952380952383
252,343,8192,1.855072463768116
253,344,8192,2.437369830407617
254,345,8192,2.4150943396226414
255,346,8192,2.462278328824767
256,347,8192,2.4150943396226414
257,348,8192,2.6956235603817045
258,349,8192,1.0491803278688525
259,354,8192,2.4158065467413743
260,355,8192,2.4380952380952383
261,356,8192,2.4380952380952383
262,357,8192,1.3687552213868004
263,358,8192,2.56
264,359,8192,2.4150943396226414
265,360,8192,2.4854368932038833
266,361,8192,2.392523364485981
267,362,8192,2.392523364485981
268,363,8192,1.0895065833222504
269,364,8192,2.5850426001893343
270,365,8192,2.4150943396226414
271,370,8192,2.4854368932038833
272,371,8192,2.4150943396226414
273,372,8192,1.0199203187250996
274,373,8192,2.4854368932038833
275,374,8192,2.4380952380952383
276,375,8192,2.392523364485981
277,376,8192,2.585858585858586
278,377,8192,2.7835541963982333
279,378,8192,1.062240663900415
280,379,8192,2.4150943396226414
281,380,8192,2.4380952380952383
282,381,8192,1.0666666666666667
283,386,8192,2.4854368932038833
284,387,8192,2.4150943396226414
285,388,8192,2.4380952380952383
286,389,8192,2.3703703703703702
287,390,8192,2.4615384615384617
288,391,8192,2.392523364485981
289,392,8192,1.0895065833222504
290,393,8192,2.4854368932038833
291,394,8192,2.4150943396226414
292,395,8192,0.98096036402826
293,396,8192,2.3703703703703702
294,397,8192,0.9961089494163424
295,402,8192,1.1179039301310043
296,403,8192,2.4380952380952383
297,404,8192,1.1179039301310043
298,405,8192,2.5608002500781493
299,406,8192,2.4380952380952383
300,407,8192,0.9411764705882353
301,408,8192,1.1277533039647578
302,409,8192,2.56
303,410,8192,1.1377777777777778
304,411,8192,2.4150943396226414
305,412,8192,1.1082251082251082
306,413,8192,2.814153211954655
307,418,8192,2.4150943396226414
308,419,8192,2.4615384615384617
309,420,8192,2.4854368932038833
310,421,8192,2.4150943396226414
311,422,8192,0.757396449704142
312,423,8192,1.1636363636363636
313,424,8192,2.56
314,425,8192,2.4380952380952383
315,426,8192,2.4380952380952383
316,427,8192,2.4854368932038833
317,428,8192,2.4150943396226414
318,429,8192,1.3264248704663213
319,434,8192,2.4615384615384617
320,435,8192,1.024
321,436,8192,2.4854368932038833
322,437,8192,0.9624060150375939
323,438,8192,2.5098039215686274
324,439,8192,2.4150943396226414
325,440,8192,1.103448275862069
326,441,8192,2.3703703703703702
327,442,8192,2.4615384615384617
328,443,8192,2.4615384615384617
329,444,8192,2.4380952380952383
330,450,8192,2.4615384615384617
331,452,8192,2.392523364485981
332,453,8192,2.6391752577319587
333,454,8192,2.4607990387503755
334,455,8192,2.4615384615384617
335,456,8192,2.723404255319149
336,457,8192,2.3703703703703702
337,458,8192,2.462278328824767
338,459,8192,2.3063063063063063
339,460,8192,2.4615384615384617
340,461,8192,2.56
341,466,8192,2.392523364485981
342,467,8192,2.4380952380952383
343,468,8192,2.226086956521739
344,469,8192,1.0987124463519313
345,470,8192,2.4854368932038833
346,471,8192,2.462278328824767
347,472,8192,2.4854368932038833
348,473,8192,1.2864321608040201
349,474,8192,2.4150943396226414
350,475,8192,2.4615384615384617
351,476,8192,2.8444444444444446
352,477,8192,2.4150943396226414
353,482,8192,2.462278328824767
354,483,8192,1.7297297297297298
355,484,8192,2.3703703703703702
356,485,8192,1.8156028368794326
357,486,8192,2.4380952380952383
358,487,8192,2.4854368932038833
359,488,8192,2.4615384615384617
360,489,8192,2.438821077701697
361,490,8192,2.4158065467413743
362,492,8192,2.4380952380952383
363,493,8192,2.723404255319149
364,498,8192,2.4150943396226414
365,499,8192,2.4854368932038833
366,500,8192,2.4615384615384617
367,501,8192,1.9692307692307693
368,502,8192,2.4861911987860394
369,503,8192,1.673202614379085
370,504,8192,2.4380952380952383
371,505,8192,2.438821077701697
372,507,8192,2.392523364485981
373,508,8192,2.4150943396226414
374,509,8192,2.4615384615384617
375,3096,8192,0.8677966101694915
376,3097,8192,2.4615384615384617
377,3098,8192,2.533869471079493
378,3099,8192,1.3333333333333333
379,3100,8192,2.327272727272727
380,3101,8192,2.4607990387503755
381,3102,8192,2.4615384615384617
382,3103,8192,1.4628571428571429
383,3104,8192,2.4150943396226414
384,3105,8192,2.4143825523135867
385,3106,8192,2.4854368932038833
386,3107,8192,1.4970760233918128
387,3112,8192,2.5098039215686274
388,3113,8192,1.0847457627118644
389,3114,8192,2.585858585858586
390,3115,8192,2.4607990387503755
391,3116,8192,2.392523364485981
392,3117,8192,2.4380952380952383
393,3118,8192,2.3703703703703702
394,3119,8192,2.694736842105263
395,3120,8192,2.4150943396226414
396,3121,8192,2.438821077701697
397,3122,8192,2.4150943396226414
398,3123,8192,2.3703703703703702
399,3128,8192,2.4615384615384617
400,3129,8192,2.4380952380952383
401,3130,8192,2.6675350048844026
402,3131,8192,2.6122448979591835
403,3132,8192,2.4854368932038833
404,3133,8192,2.4615384615384617
405,3134,8192,2.4615384615384617
406,3135,8192,2.4380952380952383
407,3136,8192,2.4854368932038833
408,3137,8192,2.5090352220520673
409,3138,8192,2.5090352220520673
410,3139,8192,2.327272727272727
411,3144,8192,2.5346534653465347
412,3145,8192,0.9732683854104788
413,3146,8192,2.782608695652174
414,3147,8192,2.752688172043011
415,3148,8192,2.4380952380952383
416,3150,8192,2.694736842105263
417,3151,8192,2.4143825523135867
418,3152,8192,2.1880341880341883
419,3153,8192,2.4150943396226414
420,3154,8192,2.4380952380952383
421,3155,8192,2.4615384615384617
422,3160,8192,1.3617021276595744
423,3161,8192,2.4380952380952383
424,3162,8192,1.0534979423868314
425,3163,8192,0.8449716348633316
426,3164,8192,1.4628571428571429
427,3165,8192,0.9343065693430657
428,3166,8192,2.56
429,3167,8192,2.8131868131868134
430,3168,8192,2.4615384615384617
431,3169,8192,2.3932223196026876
432,3170,8192,0.6900269541778976
433,3171,8192,1.4382022471910112
434,3176,8192,2.5098039215686274
435,3177,8192,2.4615384615384617
436,3178,8192,2.6666666666666665
437,3179,8192,2.3703703703703702
438,3180,8192,2.4854368932038833
439,3181,8192,2.4854368932038833
440,3182,8192,2.6122448979591835
441,3183,8192,0.9516728624535316
442,3184,8192,2.4854368932038833
443,3185,8192,2.3703703703703702
444,3186,8192,2.4380952380952383
445,3187,8192,2.4380952380952383
446,3192,8192,2.3932223196026876
447,3193,8192,2.4854368932038833
448,3194,8192,2.4380952380952383
449,3195,8192,2.462278328824767
450,3196,8192,2.4854368932038833
451,3197,8192,2.3703703703703702
452,3198,8192,2.694736842105263
453,3199,8192,1.1531531531531531
454,3200,8192,2.4854368932038833
455,3201,8192,2.4150943396226414
456,3202,8192,2.4615384615384617
457,3203,8192,2.4854368932038833
458,3208,8192,2.4854368932038833
459,3209,8192,2.4615384615384617
460,3210,8192,0.9962300863431838
461,3211,8192,2.4615384615384617
462,3212,8192,2.392523364485981
463,3213,8192,1.2190476190476192
464,3214,8192,2.5346534653465347
465,3215,8192,2.4854368932038833
466,3216,8192,2.4854368932038833
467,3218,8192,2.4380952380952383
468,3219,8192,1.1228070175438596
469,3224,8192,2.4615384615384617
470,3225,8192,2.4380952380952383
471,3226,8192,2.3703703703703702
472,3227,8192,2.3703703703703702
473,3228,8192,2.4150943396226414
474,3229,8192,2.3703703703703702
475,3230,8192,2.4380952380952383
476,3232,8192,2.4615384615384617
477,3233,8192,2.4854368932038833
478,3234,8192,2.4150943396226414
479,3235,8192,2.4150943396226414
480,3240,8192,2.4150943396226414
481,3242,8192,2.3486238532110093
482,3243,8192,2.4380952380952383
483,3245,8192,2.4854368932038833
484,3246,8192,2.4150943396226414
485,3247,8192,2.4615384615384617
486,3248,8192,2.4150943396226414
487,3249,8192,2.4143825523135867
488,3250,8192,2.4615384615384617
489,3251,8192,2.4150943396226414
490,3256,8192,2.4380952380952383
491,3257,8192,2.4854368932038833
492,3258,8192,2.4854368932038833
493,3259,8192,2.4615384615384617
494,3260,8192,2.4615384615384617
495,3261,8192,2.4615384615384617
496,3262,8192,2.4615384615384617
497,3263,8192,2.4150943396226414
498,3264,8192,0.9808429118773946
499,3265,8192,1.5802469135802468
500,3266,8192,2.4150943396226414
501,3272,8192,2.462278328824767
502,3273,8192,2.4380952380952383
503,3274,8192,2.3063063063063063
504,3275,8192,2.4150943396226414
505,3276,8192,2.4854368932038833
506,3277,8192,2.4615384615384617
507,3278,8192,2.4854368932038833
508,3279,8192,2.4615384615384617
509,3280,8192,2.4854368932038833
510,3281,8192,2.4615384615384617
511,3282,8192,2.392523364485981
512,3283,8192,2.4615384615384617
513,3288,8192,2.4854368932038833
514,3289,8192,2.4854368932038833
515,3290,8192,2.4854368932038833
516,3291,8192,1.3763440860215055
517,3292,8192,2.3703703703703702
518,3293,8192,2.4380952380952383
519,3294,8192,1.9541984732824427
520,3295,8192,2.4854368932038833
521,3296,8192,2.462278328824767
522,3297,8192,1.1130434782608696
523,3298,8192,2.462278328824767
524,3299,8192,2.392523364485981
525,3304,8192,2.4854368932038833
526,3305,8192,2.5098039215686274
527,3306,8192,2.327272727272727
528,3307,8192,2.392523364485981
529,3308,8192,2.4615384615384617
530,3309,8192,1.2188662401428358
531,3310,8192,2.4380952380952383
532,3311,8192,2.392523364485981
533,3312,8192,2.392523364485981
534,3313,8192,2.5098039215686274
535,3314,8192,2.4150943396226414
536,3315,8192,2.4380952380952383
537,3320,8192,2.4380952380952383
538,3322,8192,2.4380952380952383
539,3323,8192,2.4854368932038833
540,3324,8192,2.4380952380952383
541,3325,8192,2.3063063063063063
542,3326,8192,2.4615384615384617
543,3327,8192,2.4615384615384617
544,3328,8192,2.585858585858586
545,3329,8192,2.4615384615384617
546,3330,8192,2.3486238532110093
547,3331,8192,2.4380952380952383
548,3337,8192,1.3837837837837839
549,3338,8192,2.4854368932038833
550,3339,8192,2.4615384615384617
551,3340,8192,2.4615384615384617
552,3341,8192,2.4150943396226414
553,3342,8192,2.462278328824767
554,3343,8192,2.4150943396226414
555,3344,8192,2.4150943396226414
556,3345,8192,2.4380952380952383
557,3346,8192,2.4150943396226414
558,3347,8192,2.4615384615384617
559,3352,8192,2.4615384615384617
560,3353,8192,2.4854368932038833
561,3354,8192,2.3932223196026876
562,3356,8192,2.4607990387503755
563,3357,8192,2.4615384615384617
564,3358,8192,2.4615384615384617
565,3359,8192,2.4615384615384617
566,3360,8192,2.5098039215686274
567,3361,8192,2.4854368932038833
568,3362,8192,2.4380952380952383
569,3363,8192,2.3703703703703702
570,3368,8192,2.392523364485981
571,3369,8192,2.4854368932038833
572,3370,8192,2.4854368932038833
573,3371,8192,2.5098039215686274
574,3372,8192,2.4150943396226414
575,3374,8192,2.4150943396226414
576,3375,8192,2.392523364485981
577,3376,8192,2.4854368932038833
578,3377,8192,2.4615384615384617
579,3378,8192,2.3703703703703702
580,3379,8192,2.392523364485981
581,3384,8192,2.4615384615384617
582,3385,8192,2.5098039215686274
583,3386,8192,2.4380952380952383
584,3387,8192,2.4854368932038833
585,3388,8192,2.4615384615384617
586,3389,8192,2.3932223196026876
587,3390,8192,2.6666666666666665
588,3391,8192,1.673202614379085
589,3392,8192,2.4380952380952383
590,3393,8192,2.4380952380952383
591,3394,8192,2.4615384615384617
592,3395,8192,2.3703703703703702
593,3400,8192,2.5098039215686274
594,3401,8192,2.4615384615384617
595,3402,8192,2.4380952380952383
596,3403,8192,2.4380952380952383
597,3404,8192,2.3486238532110093
598,3405,8192,2.4150943396226414
599,3406,8192,2.4150943396226414
600,3407,8192,2.4380952380952383
601,3408,8192,2.4150943396226414
602,3409,8192,2.3486238532110093
603,3410,8192,2.4150943396226414
604,3411,8192,2.437369830407617
605,3416,8192,2.4854368932038833
606,3417,8192,2.4380952380952383
607,3418,8192,2.3932223196026876
608,3419,8192,2.4380952380952383
609,3420,8192,2.4615384615384617
610,3421,8192,1.5802469135802468
611,3422,8192,2.4150943396226414
612,3423,8192,2.438821077701697
613,3424,8192,2.4607990387503755
614,3425,8192,2.5098039215686274
615,3426,8192,2.4150943396226414
616,3427,8192,2.4615384615384617
617,3432,8192,2.3932223196026876
618,3433,8192,2.4380952380952383
619,3434,8192,2.3069557871022246
620,3435,8192,1.1743119266055047
621,3436,8192,2.4380952380952383
622,3437,8192,2.4150943396226414
623,3438,8192,1.6
624,3439,8192,0.8982456140350877
625,3440,8192,2.4380952380952383
626,3441,8192,2.392523364485981
627,3442,8192,1.0666666666666667
628,3443,8192,2.5850426001893343
