idx,og Index,data (B),bandwidth (GB/s)
0,2,8192,2.4615384615384617
1,3,8192,2.3486238532110093
2,4,8192,2.3486238532110093
3,5,8192,0.9884169884169884
4,6,8192,1.10359692846558
5,7,8192,2.4380952380952383
6,8,8192,1.7300950369588173
7,9,8192,2.4854368932038833
8,10,8192,0.9309090909090909
9,11,8192,2.5098039215686274
10,12,8192,1.1689497716894977
11,13,8192,2.4615384615384617
12,14,8192,2.4380952380952383
13,15,8192,2.5098039215686274
14,16,8192,2.4854368932038833
15,17,8192,2.5346534653465347
16,18,8192,2.5098039215686274
17,19,8192,1.1082251082251082
18,20,8192,1.514792899408284
19,21,8192,2.4854368932038833
20,22,8192,1.1478212133949839
21,23,8192,2.3063063063063063
22,24,8192,0.9922480620155039
23,25,8192,2.4380952380952383
24,26,8192,1.1689497716894977
25,27,8192,1.0709896718525298
26,28,8192,1.0623784204383349
27,29,8192,2.4380952380952383
28,34,8192,1.5900621118012421
29,35,8192,2.4615384615384617
30,36,8192,0.9045936395759717
31,37,8192,2.5346534653465347
32,38,8192,2.4607990387503755
33,39,8192,2.4854368932038833
34,40,8192,2.4854368932038833
35,41,8192,1.5058823529411764
36,42,8192,2.4380952380952383
37,43,8192,1.9844961240310077
38,44,8192,2.5098039215686274
39,45,8192,2.4854368932038833
40,46,8192,2.4380952380952383
41,47,8192,2.4380952380952383
42,48,8192,2.4854368932038833
43,49,8192,2.265486725663717
44,51,8192,2.4380952380952383
45,52,8192,2.4380952380952383
46,53,8192,2.4615384615384617
47,54,8192,2.4615384615384617
48,55,8192,2.4380952380952383
49,56,8192,1.1377777777777778
50,57,8192,2.4380952380952383
51,58,8192,0.8677966101694915
52,59,8192,2.327272727272727
53,60,8192,2.4380952380952383
54,61,8192,2.4615384615384617
55,66,8192,2.5098039215686274
56,67,8192,2.4150943396226414
57,68,8192,2.327272727272727
58,69,8192,1.024
59,70,8192,2.4615384615384617
60,71,8192,2.5090352220520673
61,72,8192,2.4380952380952383
62,73,8192,2.4150943396226414
63,74,8192,1.7534246575342465
64,75,8192,1.0078740157480315
65,76,8192,0.9378362907842015
66,77,8192,2.4861911987860394
67,78,8192,2.3486238532110093
68,79,8192,2.4607990387503755
69,80,8192,1.7534246575342465
70,81,8192,2.4615384615384617
71,82,8192,1.0448979591836736
72,83,8192,2.5098039215686274
73,84,8192,1.1636363636363636
74,85,8192,2.392523364485981
75,86,8192,2.4150943396226414
76,87,8192,2.4615384615384617
77,88,8192,0.9808429118773946
78,89,8192,2.4615384615384617
79,90,8192,2.437369830407617
80,91,8192,2.2857142857142856
81,92,8192,2.4380952380952383
82,93,8192,2.4854368932038833
83,98,8192,2.4380952380952383
84,99,8192,2.4150943396226414
85,100,8192,1.062240663900415
86,101,8192,2.4380952380952383
87,102,8192,1.10359692846558
88,103,8192,2.4615384615384617
89,104,8192,1.1428571428571428
90,105,8192,2.4150943396226414
91,106,8192,2.437369830407617
92,107,8192,2.4380952380952383
93,108,8192,2.3703703703703702
94,109,8192,2.4380952380952383
95,110,8192,1.0756302521008403
96,111,8192,2.4615384615384617
97,112,8192,2.015748031496063
98,113,8192,1.620253164556962
99,114,8192,1.7297297297297298
100,115,8192,2.4854368932038833
101,116,8192,2.4150943396226414
102,117,8192,2.4615384615384617
103,118,8192,2.3486238532110093
104,119,8192,2.4380952380952383
105,120,8192,2.392523364485981
106,121,8192,2.4854368932038833
107,122,8192,1.1130434782608696
108,123,8192,2.4854368932038833
109,124,8192,0.9770992366412213
110,125,8192,1.024
111,130,8192,2.4615384615384617
112,131,8192,2.4615384615384617
113,132,8192,1.695364238410596
114,133,8192,1.147982062780269
115,134,8192,2.5346534653465347
116,135,8192,2.169491525423729
117,136,8192,2.4615384615384617
118,137,8192,2.4854368932038833
119,138,8192,2.4607990387503755
120,139,8192,2.4615384615384617
121,140,8192,1.1797235023041475
122,141,8192,1.5802469135802468
123,142,8192,1.103448275862069
124,143,8192,1.0119827053736874
125,144,8192,2.4615384615384617
126,145,8192,2.4854368932038833
127,146,8192,2.4854368932038833
128,147,8192,2.4615384615384617
129,148,8192,1.1377777777777778
130,149,8192,2.4615384615384617
131,150,8192,2.4380952380952383
132,151,8192,2.3703703703703702
133,152,8192,2.3932223196026876
134,153,8192,2.4854368932038833
135,154,8192,0.9961089494163424
136,155,8192,2.4607990387503755
137,156,8192,1.0199203187250996
138,157,8192,2.4615384615384617
139,162,8192,1.1082251082251082
140,163,8192,0.9770992366412213
141,164,8192,2.064516129032258
142,165,8192,2.4615384615384617
143,166,8192,1.2018779342723005
144,167,8192,2.392523364485981
145,168,8192,2.3703703703703702
146,169,8192,2.4854368932038833
147,170,8192,1.0938710108158634
148,171,8192,2.0317460317460316
149,172,8192,2.4615384615384617
150,173,8192,2.4854368932038833
151,174,8192,2.327272727272727
152,175,8192,2.4854368932038833
153,176,8192,2.4854368932038833
154,177,8192,2.098360655737705
155,178,8192,2.4380952380952383
156,179,8192,2.4854368932038833
157,180,8192,2.2063021815243737
158,181,8192,2.4854368932038833
159,182,8192,0.9411764705882353
160,183,8192,0.8737201365187713
161,184,8192,0.9516728624535316
162,185,8192,2.015748031496063
163,186,8192,0.9770992366412213
164,187,8192,1.0987124463519313
165,188,8192,1.062240663900415
166,189,8192,1.0199203187250996
167,194,8192,2.4854368932038833
168,195,8192,2.4854368932038833
169,196,8192,2.4615384615384617
170,197,8192,2.4380952380952383
171,198,8192,2.4854368932038833
172,199,8192,2.206896551724138
173,200,8192,2.4615384615384617
174,201,8192,2.4854368932038833
175,202,8192,2.3703703703703702
176,203,8192,2.4854368932038833
177,204,8192,1.0895065833222504
178,205,8192,2.3703703703703702
179,206,8192,2.3703703703703702
180,207,8192,1.158371040723982
181,208,8192,1.1531531531531531
182,209,8192,2.462278328824767
183,210,8192,2.4615384615384617
184,211,8192,1.3264248704663213
185,212,8192,2.3932223196026876
186,213,8192,2.5098039215686274
187,214,8192,2.4615384615384617
188,215,8192,1.0711297071129706
189,216,8192,1.4222222222222223
190,217,8192,2.535437944908697
191,218,8192,2.5098039215686274
192,219,8192,1.1906976744186046
193,220,8192,2.4854368932038833
194,221,8192,2.4615384615384617
195,226,8192,2.4861911987860394
196,227,8192,2.4380952380952383
197,228,8192,2.4615384615384617
198,229,8192,2.265486725663717
199,230,8192,1.1277533039647578
200,231,8192,2.4615384615384617
201,232,8192,0.8562767847810181
202,233,8192,2.5346534653465347
203,234,8192,1.4224691786768535
204,235,8192,1.1377777777777778
205,236,8192,2.4380952380952383
206,237,8192,2.4615384615384617
207,238,8192,2.4615384615384617
208,239,8192,2.4854368932038833
209,240,8192,2.1512605042016806
210,241,8192,2.462278328824767
211,242,8192,2.4615384615384617
212,243,8192,2.5098039215686274
213,244,8192,2.392523364485981
214,245,8192,2.4615384615384617
215,246,8192,1.089216859460178
216,247,8192,2.3703703703703702
217,248,8192,1.9541984732824427
218,249,8192,2.4854368932038833
219,250,8192,1.1179039301310043
220,251,8192,2.4854368932038833
221,252,8192,1.0847457627118644
222,253,8192,2.4615384615384617
223,258,8192,2.4615384615384617
224,259,8192,2.5346534653465347
225,260,8192,0.9516728624535316
226,261,8192,2.4854368932038833
227,262,8192,2.4380952380952383
228,263,8192,2.4854368932038833
229,264,8192,1.0406504065040652
230,265,8192,2.5098039215686274
231,266,8192,2.4854368932038833
232,267,8192,1.0491803278688525
233,268,8192,1.6
234,269,8192,1.9697042558307285
235,270,8192,2.5098039215686274
236,271,8192,2.4615384615384617
237,272,8192,2.462278328824767
238,273,8192,1.3403141361256545
239,274,8192,1.9692307692307693
240,275,8192,2.4150943396226414
241,276,8192,1.4143646408839778
242,277,8192,2.4854368932038833
243,278,8192,2.4380952380952383
244,279,8192,2.4150943396226414
245,280,8192,2.4150943396226414
246,281,8192,2.5098039215686274
247,282,8192,2.4158065467413743
248,283,8192,1.080168776371308
249,284,8192,2.4380952380952383
250,285,8192,0.9141836848566008
251,290,8192,2.4380952380952383
252,291,8192,2.5346534653465347
253,292,8192,2.4854368932038833
254,293,8192,0.8707482993197279
255,294,8192,2.4615384615384617
256,295,8192,2.5098039215686274
257,296,8192,1.0118577075098814
258,297,8192,2.5098039215686274
259,298,8192,1.1797235023041475
260,299,8192,2.5098039215686274
261,300,8192,1.0364372469635628
262,301,8192,2.4615384615384617
263,302,8192,0.9921278914860119
264,303,8192,2.4380952380952383
265,304,8192,1.1636363636363636
266,305,8192,2.462278328824767
267,306,8192,1.0578512396694215
268,307,8192,0.9344131401847838
269,308,8192,2.3063063063063063
270,309,8192,2.4380952380952383
271,310,8192,1.4382022471910112
272,311,8192,1.0364372469635628
273,312,8192,0.9624060150375939
274,313,8192,1.0666666666666667
275,314,8192,2.4615384615384617
276,315,8192,2.462278328824767
277,316,8192,2.392523364485981
278,317,8192,0.9586892919836162
279,322,8192,2.4607990387503755
280,323,8192,1.9104477611940298
281,324,8192,2.3703703703703702
282,325,8192,1.3061224489795917
283,327,8192,1.2075471698113207
284,328,8192,1.0987124463519313
285,329,8192,2.5346534653465347
286,330,8192,2.4854368932038833
287,331,8192,2.4615384615384617
288,332,8192,2.3703703703703702
289,333,8192,2.1512605042016806
290,334,8192,1.1634710978554184
291,335,8192,1.0491803278688525
292,336,8192,1.0987124463519313
293,337,8192,1.0800263678312458
294,338,8192,2.4854368932038833
295,339,8192,1.0847457627118644
296,340,8192,0.8421052631578947
297,341,8192,2.4615384615384617
298,342,8192,2.462278328824767
299,343,8192,2.4380952380952383
300,344,8192,2.4854368932038833
301,345,8192,2.4380952380952383
302,346,8192,2.4615384615384617
303,347,8192,2.5346534653465347
304,348,8192,1.8962962962962964
305,349,8192,1.1179039301310043
306,355,8192,2.4380952380952383
307,356,8192,2.4854368932038833
308,357,8192,2.4380952380952383
309,359,8192,1.1130434782608696
310,360,8192,2.5346534653465347
311,361,8192,2.4861911987860394
312,362,8192,1.5900621118012421
313,363,8192,2.4150943396226414
314,364,8192,2.4854368932038833
315,365,8192,2.371056439942113
316,366,8192,1.0847457627118644
317,367,8192,2.4854368932038833
318,368,8192,1.1179039301310043
319,369,8192,2.5090352220520673
320,370,8192,2.4854368932038833
321,371,8192,2.4380952380952383
322,372,8192,0.9411764705882353
323,373,8192,2.4150943396226414
324,374,8192,2.4150943396226414
325,375,8192,1.103448275862069
326,376,8192,2.4854368932038833
327,377,8192,2.4607990387503755
328,379,8192,1.1531531531531531
329,380,8192,2.4854368932038833
330,381,8192,2.5346534653465347
331,386,8192,1.5058823529411764
332,387,8192,2.5098039215686274
333,388,8192,1.5609756097560976
334,389,8192,2.4615384615384617
335,390,8192,1.0118577075098814
336,391,8192,2.5346534653465347
337,392,8192,0.810126582278481
338,393,8192,2.4615384615384617
339,394,8192,2.5098039215686274
340,395,8192,2.4380952380952383
341,396,8192,1.2248803827751196
342,397,8192,2.3918248175182484
343,398,8192,2.723404255319149
344,399,8192,1.0491803278688525
345,400,8192,1.0199203187250996
346,401,8192,1.4382022471910112
347,402,8192,2.462278328824767
348,403,8192,1.1743119266055047
349,404,8192,2.462278328824767
350,405,8192,2.4615384615384617
351,406,8192,2.4615384615384617
352,407,8192,1.0848894186200504
353,408,8192,1.1228070175438596
354,409,8192,2.4380952380952383
355,410,8192,2.1512605042016806
356,411,8192,1.0241280160020003
357,412,8192,1.0847457627118644
358,413,8192,2.4380952380952383
359,418,8192,2.4615384615384617
360,419,8192,0.927536231884058
361,420,8192,1.2018779342723005
362,421,8192,2.4854368932038833
363,422,8192,2.4150943396226414
364,423,8192,1.1531531531531531
365,424,8192,1.2075471698113207
366,425,8192,2.4854368932038833
367,426,8192,2.4380952380952383
368,427,8192,1.0118577075098814
369,428,8192,2.4150943396226414
370,429,8192,1.4222222222222223
371,431,8192,1.0534979423868314
372,432,8192,1.1228070175438596
373,433,8192,1.3989071038251366
374,434,8192,1.080168776371308
375,435,8192,1.003921568627451
376,436,8192,1.080168776371308
377,437,8192,1.1179039301310043
378,438,8192,2.510573092246399
379,439,8192,2.4854368932038833
380,440,8192,1.299492385786802
381,441,8192,2.4854368932038833
382,442,8192,1
383,443,8192,1.0756302521008403
384,444,8192,2.4615384615384617
385,445,8192,2.4143825523135867
386,450,8192,2.5090352220520673
387,451,8192,2.4854368932038833
388,452,8192,1.032258064516129
389,453,8192,2.438821077701697
390,454,8192,2.5098039215686274
391,455,8192,1.1130434782608696
392,456,8192,1.0118577075098814
393,457,8192,1.1082251082251082
394,458,8192,1.0199203187250996
395,459,8192,1.0940170940170941
396,460,8192,2.4380952380952383
397,461,8192,2.4380952380952383
398,462,8192,2.3918248175182484
399,463,8192,0.9624060150375939
400,464,8192,2.4150943396226414
401,465,8192,1.003921568627451
402,466,8192,2.4380952380952383
403,467,8192,2.4380952380952383
404,468,8192,2.5098039215686274
405,469,8192,2.4615384615384617
406,470,8192,0.9921278914860119
407,471,8192,2.4615384615384617
408,472,8192,2.4854368932038833
409,473,8192,1.248780487804878
410,474,8192,0.9045936395759717
411,475,8192,2.392523364485981
412,476,8192,0.973384030418251
413,477,8192,2.4615384615384617
414,482,8192,1.045031253986478
415,483,8192,1.0037985540987624
416,484,8192,1.0491803278688525
417,485,8192,2.4854368932038833
418,486,8192,2.4150943396226414
419,487,8192,2.4854368932038833
420,488,8192,1.2610837438423645
421,489,8192,1.1130434782608696
422,490,8192,1.0987124463519313
423,491,8192,2.4854368932038833
424,492,8192,2.4615384615384617
425,493,8192,2.4854368932038833
426,494,8192,1.1130434782608696
427,495,8192,2.115702479338843
428,496,8192,2.4615384615384617
429,497,8192,1.0407826197433616
430,498,8192,2.4380952380952383
431,499,8192,2.392523364485981
432,500,8192,2.462278328824767
433,501,8192,1.1962616822429906
434,502,8192,2.3063063063063063
435,503,8192,2.4380952380952383
436,504,8192,1.0757715036112936
437,505,8192,2.4615384615384617
438,506,8192,2.4615384615384617
439,507,8192,1.2307692307692308
440,508,8192,2.4615384615384617
441,509,8192,0.847682119205298
442,514,8192,2.5098039215686274
443,515,8192,2.533869471079493
444,516,8192,2.5346534653465347
445,517,8192,1.7902097902097902
446,520,8192,2.3703703703703702
447,521,8192,2.392523364485981
448,522,8192,2.4380952380952383
449,523,8192,2.4854368932038833
450,528,8192,0.9660377358490566
451,529,8192,2.4854368932038833
452,530,8192,2.462278328824767
453,531,8192,2.4854368932038833
454,532,8192,1.0711297071129706
455,533,8192,0.8707482993197279
456,534,8192,2.064516129032258
457,535,8192,0.8126984126984127
458,536,8192,1.024
459,537,8192,0.8982456140350877
460,538,8192,2.392523364485981
461,539,8192,2.392523364485981
462,540,8192,1.0534979423868314
463,541,8192,2.4615384615384617
464,542,8192,1.0756302521008403
465,543,8192,1.5900621118012421
466,544,8192,2.392523364485981
467,545,8192,2.4615384615384617
468,546,8192,2.4615384615384617
469,547,8192,2.4615384615384617
470,548,8192,0.6754617414248021
471,549,8192,2.4150943396226414
472,550,8192,1.2018779342723005
473,551,8192,0.8707482993197279
474,552,8192,2.4615384615384617
475,553,8192,1.7655172413793103
476,554,8192,1.1179039301310043
477,555,8192,1.103448275862069
478,560,8192,1.4797687861271676
479,561,8192,1.5802469135802468
480,562,8192,2.4150943396226414
481,563,8192,2.3703703703703702
482,564,8192,2.098360655737705
483,565,8192,0.7925696594427245
484,566,8192,0.8
485,567,8192,2.4615384615384617
486,568,8192,2.4150943396226414
487,569,8192,2.4380952380952383
488,570,8192,1.4463276836158192
489,571,8192,2.4615384615384617
490,572,8192,1.0623784204383349
491,573,8192,1.3061224489795917
492,574,8192,1.0199203187250996
493,575,8192,1.2369017061754493
494,576,8192,0.9846153846153847
495,577,8192,1.0757715036112936
496,578,8192,1.4625959650062488
497,579,8192,1.4463276836158192
498,580,8192,2.4854368932038833
499,581,8192,2.4150943396226414
500,582,8192,2.392523364485981
501,583,8192,2.4380952380952383
502,584,8192,1.0711297071129706
503,585,8192,1.122960932145305
504,586,8192,2.4150943396226414
505,587,8192,2.4615384615384617
506,592,8192,0.9142857142857143
507,593,8192,1.080168776371308
508,594,8192,2.4615384615384617
509,595,8192,2.4380952380952383
510,596,8192,2.4615384615384617
511,597,8192,2.4854368932038833
512,598,8192,1.0158730158730158
513,599,8192,2.4380952380952383
514,600,8192,1.6
515,601,8192,2.5098039215686274
516,602,8192,2.510573092246399
517,603,8192,2.4615384615384617
518,604,8192,1.0491803278688525
519,605,8192,1.2075471698113207
520,606,8192,2.4380952380952383
521,607,8192,2.5098039215686274
522,608,8192,1.1636363636363636
523,609,8192,1.0756302521008403
524,610,8192,0.9411764705882353
525,611,8192,0.797585434719112
526,612,8192,2.4615384615384617
527,613,8192,2.4615384615384617
528,614,8192,1.0536334405144694
529,615,8192,2.5098039215686274
530,616,8192,2.392523364485981
531,617,8192,2.4150943396226414
532,618,8192,0.924187725631769
533,619,8192,0.8532444537027393
534,624,8192,2.4380952380952383
535,625,8192,0.9696969696969697
536,626,8192,0.8232338458446388
537,627,8192,1.4970760233918128
538,628,8192,2.5098039215686274
539,629,8192,2.4854368932038833
540,630,8192,0.9176655091296068
541,631,8192,0.9309090909090909
542,632,8192,1.0893617021276596
543,633,8192,2.510573092246399
544,634,8192,2.265486725663717
545,635,8192,1.299492385786802
546,636,8192,1.1636363636363636
547,637,8192,2.5098039215686274
548,638,8192,1.9541984732824427
549,639,8192,1.3544973544973544
550,640,8192,2.438821077701697
551,641,8192,2.4380952380952383
552,642,8192,0.920863309352518
553,643,8192,1.8686131386861313
554,644,8192,1.542459047260403
555,645,8192,2.5098039215686274
556,646,8192,1.0158730158730158
557,647,8192,1.9393939393939394
558,648,8192,2.4615384615384617
559,649,8192,2.3486238532110093
560,650,8192,1.5705521472392638
561,651,8192,2.462278328824767
562,656,8192,2.4380952380952383
563,657,8192,2.4380952380952383
564,658,8192,2.5098039215686274
565,659,8192,2.3918248175182484
566,660,8192,1.1277533039647578
567,661,8192,1.1797235023041475
568,662,8192,1.1130434782608696
569,663,8192,0.9482579002199328
570,664,8192,1.062240663900415
571,665,8192,2.5098039215686274
572,666,8192,2.4854368932038833
573,667,8192,1.147982062780269
574,668,8192,2.4380952380952383
575,669,8192,2.4615384615384617
576,670,8192,2.4615384615384617
577,671,8192,2.5098039215686274
578,672,8192,2.5098039215686274
579,673,8192,1.0365683917499684
580,674,8192,2.206896551724138
581,675,8192,2.2063021815243737
582,676,8192,2.4615384615384617
583,677,8192,1.0078740157480315
584,678,8192,2.4615384615384617
585,679,8192,2.5098039215686274
586,680,8192,1.4222222222222223
587,681,8192,1.7418668934722517
588,682,8192,2.048
589,683,8192,1.6305732484076434
590,688,8192,1.4883720930232558
591,689,8192,1.292929292929293
592,690,8192,0.9142857142857143
593,691,8192,1.7902097902097902
594,692,8192,1.1430166038788894
595,693,8192,1.0847457627118644
596,694,8192,2.533869471079493
597,695,8192,2.4854368932038833
598,696,8192,1.9844961240310077
599,697,8192,1.8823529411764706
600,698,8192,1.024
601,699,8192,1.057987860002583
602,700,8192,2.4854368932038833
603,701,8192,1
604,702,8192,1.1531531531531531
605,703,8192,1.2132701421800949
606,704,8192,1.5802469135802468
607,705,8192,2.3703703703703702
608,706,8192,2.4854368932038833
609,707,8192,2.4854368932038833
610,708,8192,0.9045936395759717
611,709,8192,1.020047316647989
612,710,8192,2.1880341880341883
613,711,8192,1.9104477611940298
614,712,8192,0.9846153846153847
615,713,8192,0.6416040100250626
616,714,8192,1.1797235023041475
617,715,8192,1.391304347826087
618,720,8192,2.4615384615384617
619,721,8192,2.4150943396226414
620,722,8192,1.1743119266055047
621,723,8192,2.3703703703703702
622,724,8192,1.2864321608040201
623,725,8192,1.049314717561163
624,726,8192,2.4380952380952383
625,727,8192,2.4854368932038833
626,728,8192,1.8823529411764706
627,729,8192,1.855072463768116
628,730,8192,1.032258064516129
629,731,8192,2.226086956521739
630,732,8192,0.9516728624535316
631,733,8192,1.9692307692307693
632,734,8192,1.3617021276595744
633,735,8192,2.4150943396226414
634,736,8192,2.4854368932038833
635,737,8192,1.0078740157480315
636,738,8192,0.7619756301739373
