idx,og Index,data (B),bandwidth (GB/s)
0,6,16384,4.491228070175438
1,7,16384,4.830188679245283
2,8,16384,4.452173913043478
3,9,16384,4.530973451327434
4,10,16384,4.452173913043478
5,11,16384,4.530973451327434
6,12,16384,4.530973451327434
7,13,16384,4.571428571428571
8,14,16384,4.491228070175438
9,15,16384,4.654545454545454
10,16,16384,4.452173913043478
11,17,16384,4.530973451327434
12,22,16384,4.452173913043478
13,23,16384,4.530973451327434
14,24,16384,4.530973451327434
15,25,16384,4.491228070175438
16,26,16384,4.530973451327434
17,27,16384,4.452173913043478
18,28,16384,4.491228070175438
19,29,16384,4.413793103448276
20,30,16384,2.9420003591309034
21,31,16384,4.413793103448276
22,32,16384,4.491228070175438
23,33,16384,4.530973451327434
24,38,16384,4.452173913043478
25,39,16384,4.571428571428571
26,40,16384,4.452173913043478
27,41,16384,4.530973451327434
28,42,16384,4.530973451327434
29,43,16384,4.530973451327434
30,44,16384,4.491228070175438
31,45,16384,4.452173913043478
32,46,16384,4.491228070175438
33,47,16384,4.491228070175438
34,48,16384,4.413793103448276
35,49,16384,4.530973451327434
36,54,16384,4.530973451327434
37,55,16384,4.571428571428571
38,56,16384,4.414982484505524
39,57,16384,4.571428571428571
40,58,16384,4.338983050847458
41,59,16384,4.571428571428571
42,60,16384,4.452173913043478
43,61,16384,4.612612612612613
44,62,16384,4.530973451327434
45,63,16384,4.491228070175438
46,64,16384,4.530973451327434
47,65,16384,4.654545454545454
48,70,16384,4.653223516046578
49,71,16384,4.491228070175438
50,72,16384,4.413793103448276
51,73,16384,4.491228070175438
52,74,16384,4.377237510018702
53,75,16384,4.530973451327434
54,76,16384,4.452173913043478
55,77,16384,4.612612612612613
56,78,16384,4.491228070175438
57,79,16384,4.492459555799287
58,80,16384,4.530973451327434
59,81,16384,4.530973451327434
60,86,16384,4.530973451327434
61,87,16384,4.491228070175438
62,88,16384,4.923076923076923
63,89,16384,4.452173913043478
64,90,16384,4.413793103448276
65,91,16384,4.338983050847458
66,92,16384,4.530973451327434
67,93,16384,4.530973451327434
68,94,16384,4.571428571428571
69,95,16384,4.572704437622105
70,96,16384,4.374899866488652
71,97,16384,4.530973451327434
72,102,16384,4.413793103448276
73,103,16384,4.530973451327434
74,104,16384,4.452173913043478
75,105,16384,4.492459555799287
76,106,16384,4.970873786407767
77,107,16384,4.571428571428571
78,108,16384,4.530973451327434
79,109,16384,4.612612612612613
80,110,16384,4.571428571428571
81,111,16384,4.612612612612613
82,112,16384,4.530973451327434
83,113,16384,4.491228070175438
84,118,16384,4.491228070175438
85,119,16384,4.530973451327434
86,120,16384,4.491228070175438
87,121,16384,4.338983050847458
88,122,16384,4.491228070175438
89,123,16384,4.654545454545454
90,124,16384,4.491228070175438
91,125,16384,4.266666666666667
92,126,16384,4.491228070175438
93,127,16384,4.612612612612613
94,128,16384,4.491228070175438
95,129,16384,4.491228070175438
96,134,16384,4.530973451327434
97,135,16384,4.413793103448276
98,136,16384,4.452173913043478
99,137,16384,4.923076923076923
100,138,16384,4.654545454545454
101,139,16384,4.612612612612613
102,140,16384,4.571428571428571
103,141,16384,4.452173913043478
104,142,16384,4.491228070175438
105,143,16384,4.452173913043478
106,144,16384,4.302521008403361
107,145,16384,4.530973451327434
108,150,16384,4.489997259523157
109,151,16384,4.571428571428571
110,152,16384,4.530973451327434
111,153,16384,4.530973451327434
112,154,16384,4.612612612612613
113,155,16384,4.491228070175438
114,156,16384,4.530973451327434
115,157,16384,4.572704437622105
116,158,16384,4.530973451327434
117,159,16384,4.571428571428571
118,160,16384,4.530973451327434
119,161,16384,4.571428571428571
120,166,16384,4.530973451327434
121,167,16384,4.491228070175438
122,168,16384,4.413793103448276
123,169,16384,4.491228070175438
124,170,16384,4.571428571428571
125,171,16384,4.612612612612613
126,172,16384,4.491228070175438
127,173,16384,4.530973451327434
128,174,16384,4.697247706422019
129,175,16384,4.491228070175438
130,176,16384,4.452173913043478
131,177,16384,4.612612612612613
132,182,16384,4.492459555799287
133,183,16384,4.452173913043478
134,184,16384,4.530973451327434
135,185,16384,4.413793103448276
136,186,16384,4.491228070175438
137,187,16384,4.654545454545454
138,188,16384,4.530973451327434
139,189,16384,4.530973451327434
140,190,16384,4.491228070175438
141,191,16384,4.530973451327434
142,192,16384,4.491228070175438
143,193,16384,4.491228070175438
144,198,16384,4.530973451327434
145,199,16384,4.530973451327434
146,200,16384,4.491228070175438
147,201,16384,4.450964411844607
148,202,16384,4.530973451327434
149,203,16384,4.571428571428571
150,204,16384,4.530973451327434
151,205,16384,4.611314382212215
152,206,16384,4.489997259523157
153,207,16384,4.491228070175438
154,208,16384,4.530973451327434
155,209,16384,4.491228070175438
156,214,16384,4.413793103448276
157,215,16384,4.3760683760683765
158,216,16384,4.530973451327434
159,217,16384,4.530973451327434
160,218,16384,4.301391441323182
161,219,16384,4.413793103448276
162,220,16384,5.389473684210526
163,221,16384,5.069306930693069
164,222,16384,4.452173913043478
165,223,16384,4.612612612612613
166,224,16384,4.654545454545454
167,225,16384,4.654545454545454
168,230,16384,4.491228070175438
169,231,16384,4.492459555799287
170,232,16384,4.452173913043478
171,233,16384,4.492459555799287
172,234,16384,4.452173913043478
173,235,16384,4.612612612612613
174,236,16384,4.530973451327434
175,237,16384,4.530973451327434
176,238,16384,4.3760683760683765
177,239,16384,4.491228070175438
178,240,16384,4.530973451327434
179,241,16384,4.492459555799287
180,246,16384,4.491228070175438
181,247,16384,4.530973451327434
182,248,16384,4.571428571428571
183,249,16384,4.530973451327434
184,250,16384,4.491228070175438
185,251,16384,4.491228070175438
186,252,16384,4.972382397572079
187,253,16384,4.697247706422019
188,254,16384,4.530973451327434
189,255,16384,4.452173913043478
190,256,16384,4.491228070175438
191,257,16384,4.491228070175438
192,262,16384,4.413793103448276
193,263,16384,4.452173913043478
194,264,16384,4.570153417015342
195,265,16384,4.530973451327434
196,266,16384,4.3760683760683765
197,267,16384,4.571428571428571
198,268,16384,4.571428571428571
199,269,16384,4.697247706422019
200,270,16384,4.612612612612613
201,271,16384,4.571428571428571
202,272,16384,4.491228070175438
203,273,16384,4.413793103448276
204,278,16384,4.3760683760683765
205,279,16384,4.491228070175438
206,280,16384,4.452173913043478
207,281,16384,4.530973451327434
208,282,16384,4.654545454545454
209,283,16384,4.655868144359193
210,284,16384,4.530973451327434
211,285,16384,4.303651168899396
212,286,16384,4.491228070175438
213,287,16384,4.654545454545454
214,288,16384,4.452173913043478
215,289,16384,4.530973451327434
216,294,16384,4.452173913043478
217,295,16384,4.572704437622105
218,296,16384,4.338983050847458
219,297,16384,4.452173913043478
220,298,16384,4.571428571428571
221,299,16384,4.452173913043478
222,300,16384,4.452173913043478
223,301,16384,4.489997259523157
224,302,16384,4.530973451327434
225,303,16384,4.530973451327434
226,304,16384,4.530973451327434
227,305,16384,4.374899866488652
228,310,16384,4.530973451327434
229,311,16384,4.3760683760683765
230,312,16384,4.491228070175438
231,313,16384,4.374899866488652
232,314,16384,4.572704437622105
233,315,16384,4.491228070175438
234,316,16384,4.530973451327434
235,317,16384,4.491228070175438
236,318,16384,4.530973451327434
237,319,16384,4.654545454545454
238,320,16384,4.491228070175438
239,321,16384,4.571428571428571
240,326,16384,4.571428571428571
241,327,16384,4.530973451327434
242,328,16384,4.491228070175438
243,329,16384,4.530973451327434
244,330,16384,4.489997259523157
245,331,16384,4.452173913043478
246,332,16384,4.491228070175438
247,333,16384,4.530973451327434
248,334,16384,4.612612612612613
249,335,16384,4.530973451327434
250,336,16384,4.338983050847458
251,337,16384,4.571428571428571
252,342,16384,4.654545454545454
253,343,16384,4.530973451327434
254,344,16384,4.530973451327434
255,345,16384,4.452173913043478
256,346,16384,4.571428571428571
257,347,16384,4.612612612612613
258,348,16384,4.3760683760683765
259,349,16384,4.654545454545454
260,350,16384,4.413793103448276
261,351,16384,4.3760683760683765
262,352,16384,4.491228070175438
263,353,16384,4.452173913043478
264,358,16384,4.612612612612613
265,359,16384,4.530973451327434
266,360,16384,4.3760683760683765
267,361,16384,4.492459555799287
268,362,16384,4.53222683264177
269,363,16384,4.7407407407407405
270,364,16384,4.3760683760683765
271,365,16384,4.491228070175438
272,366,16384,4.530973451327434
273,367,16384,4.530973451327434
274,368,16384,4.491228070175438
275,369,16384,4.413793103448276
276,374,16384,4.530973451327434
277,375,16384,4.452173913043478
278,376,16384,4.612612612612613
279,377,16384,4.452173913043478
280,378,16384,4.572704437622105
281,379,16384,4.491228070175438
282,380,16384,4.452173913043478
283,381,16384,4.530973451327434
284,382,16384,4.53222683264177
285,383,16384,4.452173913043478
286,384,16384,4.530973451327434
287,385,16384,4.530973451327434
288,390,16384,4.530973451327434
289,391,16384,4.530973451327434
290,392,16384,4.413793103448276
291,393,16384,4.491228070175438
292,394,16384,4.654545454545454
293,395,16384,4.611314382212215
294,396,16384,4.452173913043478
295,397,16384,4.413793103448276
296,398,16384,4.571428571428571
297,399,16384,4.612612612612613
298,400,16384,4.530973451327434
299,401,16384,4.530973451327434
300,406,16384,4.452173913043478
301,407,16384,4.452173913043478
302,408,16384,4.530973451327434
303,409,16384,4.338983050847458
304,410,16384,4.413793103448276
305,411,16384,4.571428571428571
306,412,16384,4.452173913043478
307,413,16384,4.654545454545454
308,414,16384,4.489997259523157
309,415,16384,4.491228070175438
310,416,16384,4.492459555799287
311,417,16384,4.530973451327434
312,422,16384,4.530973451327434
313,423,16384,4.530973451327434
314,424,16384,4.452173913043478
315,425,16384,4.923076923076923
316,426,16384,4.830188679245283
317,427,16384,4.3760683760683765
318,428,16384,4.530973451327434
319,429,16384,5.069306930693069
320,430,16384,4.3760683760683765
321,431,16384,4.491228070175438
322,432,16384,4.530973451327434
323,433,16384,4.491228070175438
324,438,16384,4.450964411844607
325,439,16384,4.491228070175438
326,440,16384,4.530973451327434
327,441,16384,4.530973451327434
328,442,16384,4.697247706422019
329,443,16384,4.970873786407767
330,444,16384,4.413793103448276
331,445,16384,4.266666666666667
332,446,16384,4.413793103448276
333,447,16384,4.7407407407407405
334,448,16384,4.491228070175438
335,449,16384,4.530973451327434
336,454,16384,4.491228070175438
337,455,16384,4.785046728971962
338,456,16384,4.530973451327434
339,457,16384,4.571428571428571
340,458,16384,4.571428571428571
341,459,16384,4.413793103448276
342,460,16384,4.572704437622105
343,461,16384,4.491228070175438
344,462,16384,4.452173913043478
345,463,16384,4.491228070175438
346,464,16384,4.3760683760683765
347,465,16384,4.338983050847458
348,470,16384,4.530973451327434
349,471,16384,4.491228070175438
350,472,16384,4.571428571428571
351,473,16384,4.3760683760683765
352,474,16384,4.3760683760683765
353,475,16384,4.452173913043478
354,476,16384,4.452173913043478
355,477,16384,4.491228070175438
356,478,16384,4.413793103448276
357,479,16384,4.654545454545454
358,480,16384,4.530973451327434
359,481,16384,4.830188679245283
360,486,16384,4.530973451327434
361,487,16384,4.3760683760683765
362,488,16384,4.530973451327434
363,489,16384,4.413793103448276
364,490,16384,4.491228070175438
365,491,16384,4.452173913043478
366,492,16384,4.491228070175438
367,493,16384,5.12
368,494,16384,4.413793103448276
369,495,16384,4.491228070175438
370,496,16384,4.530973451327434
371,497,16384,4.491228070175438
372,502,16384,4.452173913043478
373,503,16384,4.530973451327434
374,504,16384,4.491228070175438
375,505,16384,4.612612612612613
376,506,16384,4.489997259523157
377,507,16384,4.491228070175438
378,508,16384,4.491228070175438
379,509,16384,4.654545454545454
380,510,16384,4.452173913043478
381,511,16384,5.171717171717172
382,512,16384,4.450964411844607
383,513,16384,4.530973451327434
384,518,16384,4.612612612612613
385,519,16384,4.452173913043478
386,520,16384,4.530973451327434
387,521,16384,4.530973451327434
388,522,16384,4.697247706422019
389,523,16384,4.571428571428571
390,524,16384,4.338983050847458
391,525,16384,4.571428571428571
392,526,16384,4.45338407175863
393,527,16384,4.655868144359193
394,528,16384,4.530973451327434
395,529,16384,4.340132450331126
396,534,16384,4.491228070175438
397,535,16384,4.571428571428571
398,536,16384,4.45338407175863
399,537,16384,4.53222683264177
400,538,16384,4.491228070175438
401,539,16384,4.491228070175438
402,540,16384,4.530973451327434
403,541,16384,4.413793103448276
404,542,16384,4.571428571428571
405,543,16384,4.452173913043478
406,544,16384,4.452173913043478
407,545,16384,4.414982484505524
408,550,16384,4.530973451327434
409,551,16384,4.571428571428571
410,552,16384,4.452173913043478
411,553,16384,4.571428571428571
412,554,16384,4.491228070175438
413,555,16384,4.571428571428571
414,556,16384,4.452173913043478
415,557,16384,4.338983050847458
416,558,16384,4.452173913043478
417,559,16384,4.530973451327434
418,560,16384,4.452173913043478
419,561,16384,4.571428571428571
420,566,16384,4.491228070175438
421,567,16384,4.970873786407767
422,568,16384,4.530973451327434
423,569,16384,4.530973451327434
424,570,16384,4.530973451327434
425,571,16384,4.612612612612613
426,572,16384,4.530973451327434
427,573,16384,4.3760683760683765
428,574,16384,4.491228070175438
429,575,16384,4.571428571428571
430,576,16384,5.019607843137255
431,577,16384,4.491228070175438
432,582,16384,4.452173913043478
433,583,16384,4.923076923076923
434,584,16384,4.491228070175438
435,585,16384,4.45338407175863
436,586,16384,4.3760683760683765
437,587,16384,4.530973451327434
438,588,16384,4.530973451327434
439,589,16384,4.654545454545454
440,590,16384,4.452173913043478
441,591,16384,4.571428571428571
442,592,16384,4.570153417015342
443,593,16384,4.491228070175438
444,598,16384,4.530973451327434
445,599,16384,4.530973451327434
446,600,16384,4.530973451327434
447,601,16384,4.413793103448276
448,602,16384,4.452173913043478
449,603,16384,4.338983050847458
450,604,16384,4.530973451327434
451,605,16384,4.612612612612613
452,606,16384,4.452173913043478
453,607,16384,4.530973451327434
454,608,16384,4.571428571428571
455,609,16384,4.530973451327434
456,614,16384,4.266666666666667
457,615,16384,4.530973451327434
458,616,16384,4.413793103448276
459,617,16384,4.571428571428571
460,618,16384,4.530973451327434
461,619,16384,4.452173913043478
462,620,16384,4.489997259523157
463,621,16384,4.571428571428571
464,622,16384,4.491228070175438
465,623,16384,4.3760683760683765
466,624,16384,4.491228070175438
467,625,16384,4.452173913043478
468,630,16384,4.530973451327434
469,631,16384,4.530973451327434
470,632,16384,4.491228070175438
471,633,16384,4.530973451327434
472,634,16384,4.530973451327434
473,635,16384,4.302521008403361
474,636,16384,4.530973451327434
475,637,16384,4.530973451327434
476,638,16384,4.530973451327434
477,639,16384,4.491228070175438
478,640,16384,4.612612612612613
479,641,16384,4.571428571428571
480,646,16384,4.570153417015342
481,647,16384,4.491228070175438
482,648,16384,4.45338407175863
483,649,16384,4.491228070175438
484,650,16384,4.530973451327434
485,651,16384,4.530973451327434
486,652,16384,4.571428571428571
487,653,16384,4.491228070175438
488,654,16384,4.530973451327434
489,655,16384,4.45338407175863
490,656,16384,4.491228070175438
491,657,16384,4.876190476190477
492,662,16384,4.530973451327434
493,663,16384,4.491228070175438
494,664,16384,4.491228070175438
495,665,16384,4.571428571428571
496,666,16384,4.413793103448276
497,667,16384,4.612612612612613
498,668,16384,4.413793103448276
499,669,16384,4.414982484505524
500,670,16384,4.530973451327434
501,671,16384,4.491228070175438
502,672,16384,4.452173913043478
503,673,16384,4.571428571428571
504,678,16384,5.224489795918367
505,679,16384,4.491228070175438
506,680,16384,4.571428571428571
507,681,16384,4.612612612612613
508,682,16384,4.530973451327434
509,683,16384,4.530973451327434
510,684,16384,4.530973451327434
511,685,16384,4.3760683760683765
512,686,16384,4.530973451327434
513,687,16384,4.530973451327434
514,688,16384,4.3760683760683765
515,689,16384,4.338983050847458
516,694,16384,4.697247706422019
517,695,16384,4.572704437622105
518,696,16384,4.570153417015342
519,697,16384,4.452173913043478
520,698,16384,4.530973451327434
521,699,16384,4.491228070175438
522,700,16384,4.571428571428571
523,701,16384,4.491228070175438
524,702,16384,4.571428571428571
525,703,16384,4.53222683264177
526,704,16384,4.876190476190477
527,705,16384,4.530973451327434
528,710,16384,4.571428571428571
529,711,16384,4.491228070175438
530,712,16384,4.45338407175863
531,713,16384,4.612612612612613
532,714,16384,4.491228070175438
533,715,16384,4.530973451327434
534,716,16384,4.572704437622105
535,717,16384,4.571428571428571
536,718,16384,4.491228070175438
537,719,16384,4.491228070175438
538,720,16384,4.491228070175438
539,721,16384,4.571428571428571
540,726,16384,4.571428571428571
541,727,16384,4.489997259523157
542,728,16384,4.654545454545454
543,729,16384,4.530973451327434
544,730,16384,4.3760683760683765
545,731,16384,4.572704437622105
546,732,16384,4.571428571428571
547,733,16384,4.491228070175438
548,734,16384,4.572704437622105
549,735,16384,4.3760683760683765
550,736,16384,4.413793103448276
551,737,16384,4.530973451327434
552,742,16384,4.530973451327434
553,743,16384,4.571428571428571
554,744,16384,4.876190476190477
555,745,16384,4.492459555799287
556,746,16384,4.452173913043478
557,747,16384,4.654545454545454
558,748,16384,4.45338407175863
559,749,16384,4.571428571428571
560,750,16384,4.338983050847458
561,751,16384,4.491228070175438
562,752,16384,4.571428571428571
563,753,16384,4.611314382212215
564,758,16384,4.3760683760683765
565,759,16384,4.450964411844607
566,760,16384,4.491228070175438
567,761,16384,4.452173913043478
568,762,16384,4.530973451327434
569,763,16384,4.302521008403361
570,764,16384,4.571428571428571
571,765,16384,4.530973451327434
572,766,16384,4.452173913043478
573,767,16384,4.530973451327434
574,768,16384,5.019607843137255
575,769,16384,4.413793103448276
576,774,16384,4.3760683760683765
577,775,16384,4.377237510018702
578,776,16384,4.970873786407767
579,777,16384,4.338983050847458
580,778,16384,4.571428571428571
581,779,16384,4.452173913043478
582,780,16384,4.302521008403361
583,781,16384,4.530973451327434
584,782,16384,4.654545454545454
585,783,16384,4.653223516046578
586,784,16384,4.452173913043478
587,785,16384,4.571428571428571
588,790,16384,4.491228070175438
589,791,16384,4.571428571428571
590,792,16384,4.414982484505524
591,793,16384,4.923076923076923
592,794,16384,4.530973451327434
593,795,16384,4.377237510018702
594,796,16384,4.530973451327434
595,797,16384,4.491228070175438
596,798,16384,4.530973451327434
597,799,16384,4.377237510018702
598,800,16384,4.530973451327434
599,801,16384,4.530973451327434
600,806,16384,4.570153417015342
601,807,16384,4.830188679245283
602,808,16384,4.530973451327434
603,809,16384,4.491228070175438
604,810,16384,4.612612612612613
605,811,16384,4.530973451327434
606,812,16384,5.069306930693069
607,813,16384,4.489997259523157
608,814,16384,4.572704437622105
609,815,16384,4.571428571428571
610,816,16384,4.338983050847458
611,817,16384,4.413793103448276
612,822,16384,4.491228070175438
613,823,16384,4.301391441323182
614,824,16384,4.530973451327434
615,825,16384,4.53222683264177
616,826,16384,4.530973451327434
617,827,16384,4.3760683760683765
618,828,16384,4.452173913043478
619,829,16384,4.530973451327434
620,830,16384,4.654545454545454
621,831,16384,4.3760683760683765
622,832,16384,4.571428571428571
623,833,16384,4.491228070175438
624,838,16384,4.302521008403361
625,839,16384,4.489997259523157
626,840,16384,4.571428571428571
627,841,16384,4.489997259523157
628,842,16384,4.452173913043478
