idx,og Index,data (B),bandwidth (GB/s)
0,0,8192,1.7300950369588173
1,1,8192,2.1880341880341883
2,2,8192,2.5098039215686274
3,3,8192,2.4854368932038833
4,4,8192,2.3486238532110093
5,5,8192,2.4150943396226414
6,6,8192,2.4615384615384617
7,7,8192,2.5098039215686274
8,8,8192,2.5098039215686274
9,9,8192,2.4854368932038833
10,10,8192,2.5098039215686274
11,11,8192,2.3703703703703702
12,16,8192,2.438821077701697
13,17,8192,2.4380952380952383
14,18,8192,2.5098039215686274
15,19,8192,2.4615384615384617
16,20,8192,2.4854368932038833
17,21,8192,2.4607990387503755
18,22,8192,2.4150943396226414
19,23,8192,2.3486238532110093
20,24,8192,2.5346534653465347
21,25,8192,2.4615384615384617
22,26,8192,2.5098039215686274
23,27,8192,2.4861911987860394
24,32,8192,2.437369830407617
25,33,8192,2.4380952380952383
26,34,8192,2.4854368932038833
27,35,8192,2.4615384615384617
28,36,8192,2.3703703703703702
29,37,8192,2.4380952380952383
30,38,8192,2.4615384615384617
31,39,8192,2.4380952380952383
32,40,8192,2.371056439942113
33,41,8192,2.4143825523135867
34,42,8192,2.510573092246399
35,43,8192,2.392523364485981
36,48,8192,2.5098039215686274
37,49,8192,2.5098039215686274
38,50,8192,2.4380952380952383
39,51,8192,2.4150943396226414
40,52,8192,2.3703703703703702
41,53,8192,2.5346534653465347
42,54,8192,2.4380952380952383
43,55,8192,2.462278328824767
44,56,8192,2.4615384615384617
45,57,8192,2.4380952380952383
46,58,8192,2.4854368932038833
47,59,8192,2.5346534653465347
48,64,8192,2.5090352220520673
49,65,8192,2.4158065467413743
50,66,8192,2.438821077701697
51,67,8192,2.437369830407617
52,68,8192,2.4854368932038833
53,69,8192,2.4380952380952383
54,70,8192,2.5608002500781493
55,71,8192,2.4607990387503755
56,72,8192,2.4380952380952383
57,73,8192,2.392523364485981
58,74,8192,2.3486238532110093
59,75,8192,2.4143825523135867
60,80,8192,2.5098039215686274
61,81,8192,2.462278328824767
62,82,8192,2.5346534653465347
63,83,8192,2.4380952380952383
64,84,8192,2.4615384615384617
65,85,8192,2.4380952380952383
66,86,8192,2.533869471079493
67,87,8192,2.4150943396226414
68,88,8192,2.3703703703703702
69,89,8192,2.4380952380952383
70,90,8192,2.4380952380952383
71,91,8192,2.4150943396226414
72,96,8192,2.4380952380952383
73,97,8192,2.5098039215686274
74,98,8192,2.5346534653465347
75,99,8192,2.4615384615384617
76,100,8192,1.9104477611940298
77,101,8192,2.4380952380952383
78,102,8192,2.4380952380952383
79,103,8192,2.3932223196026876
80,104,8192,2.5346534653465347
81,105,8192,2.392523364485981
82,106,8192,2.5098039215686274
83,107,8192,2.392523364485981
84,112,8192,2.3703703703703702
85,113,8192,2.3703703703703702
86,114,8192,2.4380952380952383
87,115,8192,2.4615384615384617
88,116,8192,2.4615384615384617
89,117,8192,2.4380952380952383
90,118,8192,2.5346534653465347
91,119,8192,2.392523364485981
92,120,8192,2.5346534653465347
93,121,8192,2.4615384615384617
94,122,8192,2.4380952380952383
95,123,8192,2.392523364485981
96,128,8192,2.4143825523135867
97,129,8192,2.3932223196026876
98,130,8192,1.7534246575342465
99,131,8192,2.4615384615384617
100,132,8192,2.4150943396226414
101,133,8192,2.3703703703703702
102,134,8192,2.5346534653465347
103,135,8192,2.462278328824767
104,136,8192,2.4150943396226414
105,137,8192,2.4150943396226414
106,138,8192,2.5098039215686274
107,139,8192,2.4380952380952383
108,144,8192,2.4607990387503755
109,145,8192,2.4854368932038833
110,146,8192,2.5346534653465347
111,147,8192,2.3703703703703702
112,148,8192,2.4380952380952383
113,149,8192,2.392523364485981
114,150,8192,2.438821077701697
115,151,8192,2.4380952380952383
116,152,8192,2.510573092246399
117,153,8192,2.4380952380952383
118,154,8192,2.327272727272727
119,155,8192,2.4380952380952383
120,160,8192,2.4380952380952383
121,161,8192,2.4380952380952383
122,162,8192,2.4854368932038833
123,163,8192,2.3703703703703702
124,164,8192,2.5098039215686274
125,165,8192,2.4615384615384617
126,166,8192,2.4380952380952383
127,167,8192,2.4150943396226414
128,168,8192,2.4615384615384617
129,169,8192,2.5098039215686274
130,170,8192,2.5346534653465347
131,171,8192,2.4615384615384617
132,176,8192,2.4854368932038833
133,177,8192,2.4380952380952383
134,178,8192,2.5098039215686274
135,179,8192,2.4615384615384617
136,180,8192,2.4150943396226414
137,181,8192,2.5098039215686274
138,182,8192,2.3703703703703702
139,183,8192,2.3486238532110093
140,184,8192,2.510573092246399
141,185,8192,2.4380952380952383
142,186,8192,2.4854368932038833
143,187,8192,2.4607990387503755
144,192,8192,2.4150943396226414
145,193,8192,2.4380952380952383
146,194,8192,2.5346534653465347
147,195,8192,2.4380952380952383
148,196,8192,2.4854368932038833
149,197,8192,2.4615384615384617
150,198,8192,2.4158065467413743
151,199,8192,2.5098039215686274
152,200,8192,2.5098039215686274
153,201,8192,2.4615384615384617
154,202,8192,2.5098039215686274
155,203,8192,2.327272727272727
156,208,8192,2.392523364485981
157,209,8192,2.392523364485981
158,210,8192,2.4380952380952383
159,211,8192,2.4380952380952383
160,212,8192,2.5346534653465347
161,213,8192,2.392523364485981
162,214,8192,2.5098039215686274
163,215,8192,2.4380952380952383
164,216,8192,2.3486238532110093
165,217,8192,2.4150943396226414
166,218,8192,2.4861911987860394
167,219,8192,2.4380952380952383
168,224,8192,2.5098039215686274
169,225,8192,2.4380952380952383
170,226,8192,2.4615384615384617
171,227,8192,2.4380952380952383
172,228,8192,2.392523364485981
173,229,8192,2.392523364485981
174,230,8192,2.4380952380952383
175,231,8192,2.4615384615384617
176,232,8192,2.5346534653465347
177,233,8192,2.4380952380952383
178,234,8192,2.5098039215686274
179,235,8192,2.5098039215686274
180,240,8192,2.5098039215686274
181,241,8192,2.4380952380952383
182,242,8192,2.4380952380952383
183,243,8192,2.3486238532110093
184,244,8192,2.5098039215686274
185,245,8192,2.4615384615384617
186,246,8192,2.4607990387503755
187,247,8192,2.4615384615384617
188,248,8192,2.4143825523135867
189,249,8192,2.4607990387503755
190,250,8192,2.510573092246399
191,251,8192,2.4615384615384617
192,256,8192,1.695364238410596
193,257,8192,2.4615384615384617
194,258,8192,2.5090352220520673
195,259,8192,2.4380952380952383
196,260,8192,2.4143825523135867
197,261,8192,2.4380952380952383
198,262,8192,2.3703703703703702
199,263,8192,2.4854368932038833
200,264,8192,2.4854368932038833
201,265,8192,2.4854368932038833
202,266,8192,2.5098039215686274
203,267,8192,2.4380952380952383
204,272,8192,1.7534246575342465
205,273,8192,2.4615384615384617
206,274,8192,2.3063063063063063
207,275,8192,2.4380952380952383
208,276,8192,2.5098039215686274
209,277,8192,2.5346534653465347
210,278,8192,2.5098039215686274
211,279,8192,2.4380952380952383
212,280,8192,2.5098039215686274
213,281,8192,2.4380952380952383
214,282,8192,2.4854368932038833
215,283,8192,2.4615384615384617
216,288,8192,2.5346534653465347
217,289,8192,2.4854368932038833
218,290,8192,2.392523364485981
219,291,8192,2.4380952380952383
220,292,8192,2.5098039215686274
221,293,8192,2.392523364485981
222,294,8192,2.4150943396226414
223,295,8192,2.437369830407617
224,296,8192,2.3932223196026876
225,297,8192,2.535437944908697
226,298,8192,2.5346534653465347
227,299,8192,2.4615384615384617
228,304,8192,2.392523364485981
229,305,8192,2.3703703703703702
230,306,8192,2.3063063063063063
231,307,8192,2.392523364485981
232,308,8192,2.4380952380952383
233,309,8192,2.4380952380952383
234,310,8192,2.4615384615384617
235,311,8192,2.4380952380952383
236,312,8192,2.4380952380952383
237,313,8192,2.4380952380952383
238,314,8192,2.4150943396226414
239,315,8192,2.5098039215686274
240,320,8192,2.5098039215686274
241,321,8192,2.4615384615384617
242,322,8192,2.5098039215686274
243,323,8192,2.392523364485981
244,324,8192,2.535437944908697
245,325,8192,2.4150943396226414
246,326,8192,2.510573092246399
247,327,8192,2.3486238532110093
248,328,8192,2.392523364485981
249,329,8192,2.4150943396226414
250,330,8192,2.4854368932038833
251,331,8192,2.5098039215686274
252,336,8192,2.4380952380952383
253,337,8192,2.4854368932038833
254,338,8192,2.535437944908697
255,339,8192,2.4615384615384617
256,340,8192,2.4854368932038833
257,341,8192,2.4380952380952383
258,342,8192,2.4615384615384617
259,343,8192,2.4150943396226414
260,344,8192,2.4854368932038833
261,345,8192,2.4380952380952383
262,346,8192,2.4615384615384617
263,347,8192,2.4380952380952383
264,352,8192,2.3703703703703702
265,353,8192,2.4854368932038833
266,354,8192,2.327272727272727
267,355,8192,2.4854368932038833
268,356,8192,2.392523364485981
269,357,8192,2.3703703703703702
270,358,8192,2.4150943396226414
271,359,8192,2.438821077701697
272,360,8192,2.5098039215686274
273,361,8192,2.3703703703703702
274,362,8192,2.4615384615384617
275,363,8192,2.4380952380952383
276,368,8192,2.4150943396226414
277,369,8192,2.4380952380952383
278,370,8192,2.4380952380952383
279,371,8192,2.4380952380952383
280,372,8192,2.5098039215686274
281,373,8192,2.4380952380952383
282,374,8192,2.392523364485981
283,375,8192,2.4615384615384617
284,376,8192,2.4380952380952383
285,377,8192,2.4380952380952383
286,378,8192,2.4854368932038833
287,379,8192,2.4150943396226414
288,384,8192,2.4615384615384617
289,385,8192,2.4380952380952383
290,386,8192,2.4615384615384617
291,387,8192,2.349297390306854
292,388,8192,2.5098039215686274
293,389,8192,2.4615384615384617
294,390,8192,2.4607990387503755
295,391,8192,2.4380952380952383
296,392,8192,2.4854368932038833
297,393,8192,2.4615384615384617
298,394,8192,2.5346534653465347
299,395,8192,2.4380952380952383
300,400,8192,2.5346534653465347
301,401,8192,2.4380952380952383
302,402,8192,2.4854368932038833
303,403,8192,2.4615384615384617
304,404,8192,2.4380952380952383
305,405,8192,2.4150943396226414
306,406,8192,2.4380952380952383
307,407,8192,2.3703703703703702
308,408,8192,2.347950702206936
309,409,8192,2.4150943396226414
310,410,8192,2.4854368932038833
311,411,8192,2.392523364485981
312,416,8192,2.782608695652174
313,417,8192,2.4380952380952383
314,418,8192,2.5346534653465347
315,420,8192,2.048
316,421,8192,0.9110320284697508
317,424,8192,2.4615384615384617
318,425,8192,2.392523364485981
319,427,8192,2.3486238532110093
320,432,8192,2.327272727272727
321,433,8192,2.4150943396226414
322,436,8192,2.4380952380952383
323,437,8192,2.4615384615384617
324,438,8192,2.4380952380952383
325,439,8192,2.4150943396226414
326,440,8192,2.5098039215686274
327,441,8192,2.4380952380952383
328,442,8192,2.462278328824767
329,443,8192,2.4380952380952383
330,448,8192,2.4380952380952383
331,449,8192,2.5346534653465347
332,450,8192,2.392523364485981
333,451,8192,2.4158065467413743
334,452,8192,2.4150943396226414
335,453,8192,2.4615384615384617
336,454,8192,2.4380952380952383
337,455,8192,2.5090352220520673
338,456,8192,2.4615384615384617
339,457,8192,2.4615384615384617
340,458,8192,2.5346534653465347
341,459,8192,2.4150943396226414
342,464,8192,2.5098039215686274
343,465,8192,2.169491525423729
344,466,8192,2.533869471079493
345,467,8192,2.4380952380952383
346,468,8192,2.5346534653465347
347,469,8192,2.4854368932038833
348,470,8192,2.5098039215686274
349,471,8192,2.4150943396226414
350,472,8192,2.4380952380952383
351,473,8192,2.392523364485981
352,474,8192,2.4380952380952383
353,475,8192,2.4380952380952383
354,480,8192,2.4380952380952383
355,481,8192,2.392523364485981
356,482,8192,2.4380952380952383
357,483,8192,2.4380952380952383
358,484,8192,2.5346534653465347
359,485,8192,2.4854368932038833
360,486,8192,2.438821077701697
361,487,8192,2.3703703703703702
362,488,8192,2.437369830407617
363,489,8192,2.5098039215686274
364,490,8192,2.4615384615384617
365,491,8192,2.4380952380952383
366,496,8192,2.5098039215686274
367,497,8192,2.4854368932038833
368,498,8192,2.5346534653465347
369,499,8192,2.437369830407617
370,500,8192,2.462278328824767
371,501,8192,2.392523364485981
372,502,8192,2.5098039215686274
373,503,8192,2.438821077701697
374,504,8192,2.4615384615384617
375,505,8192,2.4615384615384617
376,506,8192,2.5098039215686274
377,507,8192,2.4854368932038833
378,512,8192,2.8444444444444446
379,513,8192,2.4380952380952383
380,514,8192,2.4380952380952383
381,516,8192,2.462278328824767
382,517,8192,2.5090352220520673
383,518,8192,2.4854368932038833
384,519,8192,2.4150943396226414
385,520,8192,2.392523364485981
386,521,8192,2.4150943396226414
387,522,8192,2.5346534653465347
388,523,8192,2.4380952380952383
389,528,8192,2.4615384615384617
390,529,8192,2.462278328824767
391,530,8192,2.392523364485981
392,531,8192,2.4150943396226414
393,532,8192,2.5098039215686274
394,533,8192,2.4607990387503755
395,534,8192,2.4380952380952383
396,535,8192,2.4615384615384617
397,536,8192,2.5098039215686274
398,537,8192,2.4615384615384617
399,538,8192,2.4380952380952383
400,539,8192,2.4150943396226414
401,544,8192,2.4380952380952383
402,545,8192,2.4380952380952383
403,546,8192,2.3703703703703702
404,547,8192,2.462278328824767
405,548,8192,2.4615384615384617
406,549,8192,2.462278328824767
407,550,8192,2.4615384615384617
408,551,8192,2.4615384615384617
409,552,8192,2.5098039215686274
410,553,8192,2.2857142857142856
411,554,8192,2.5098039215686274
412,555,8192,2.4615384615384617
413,560,8192,2.5098039215686274
414,561,8192,2.5098039215686274
415,562,8192,2.5346534653465347
416,563,8192,2.4854368932038833
417,564,8192,2.4380952380952383
418,565,8192,2.510573092246399
419,566,8192,2.4150943396226414
420,567,8192,2.4615384615384617
421,568,8192,2.4150943396226414
422,569,8192,2.4380952380952383
423,570,8192,2.392523364485981
424,571,8192,2.4615384615384617
425,576,8192,2.4854368932038833
426,577,8192,2.4615384615384617
427,578,8192,2.5098039215686274
428,579,8192,2.4380952380952383
429,580,8192,2.4615384615384617
430,581,8192,2.4150943396226414
431,582,8192,2.462278328824767
432,583,8192,2.4854368932038833
433,584,8192,2.4854368932038833
434,585,8192,2.3918248175182484
435,586,8192,2.4615384615384617
436,592,8192,2.4615384615384617
437,593,8192,2.4615384615384617
438,594,8192,2.4150943396226414
439,595,8192,2.4615384615384617
440,596,8192,2.4854368932038833
441,597,8192,2.4615384615384617
442,598,8192,2.4380952380952383
443,599,8192,2.4615384615384617
444,600,8192,2.392523364485981
445,601,8192,2.4380952380952383
446,602,8192,2.4607990387503755
447,603,8192,2.4854368932038833
448,608,8192,2.4854368932038833
449,609,8192,2.4380952380952383
450,610,8192,2.4150943396226414
451,611,8192,2.4150943396226414
452,612,8192,2.392523364485981
453,613,8192,2.4615384615384617
454,614,8192,2.4854368932038833
455,616,8192,2.4615384615384617
456,617,8192,2.4615384615384617
457,618,8192,2.4615384615384617
458,619,8192,2.3703703703703702
459,624,8192,2.226086956521739
460,625,8192,2.4615384615384617
461,626,8192,2.5098039215686274
462,627,8192,2.4615384615384617
463,628,8192,2.5098039215686274
464,629,8192,2.4615384615384617
465,630,8192,2.4607990387503755
466,631,8192,2.4854368932038833
467,632,8192,2.5098039215686274
468,633,8192,2.4854368932038833
469,634,8192,2.5346534653465347
470,635,8192,2.0317460317460316
471,640,8192,2.4854368932038833
472,641,8192,2.437369830407617
473,642,8192,2.5346534653465347
474,643,8192,2.4380952380952383
475,644,8192,2.4854368932038833
476,645,8192,2.4380952380952383
477,646,8192,2.4615384615384617
478,647,8192,2.4380952380952383
479,648,8192,2.4615384615384617
480,649,8192,2.4607990387503755
481,650,8192,2.4615384615384617
482,651,8192,2.4150943396226414
483,656,8192,2.4615384615384617
484,657,8192,2.4615384615384617
485,658,8192,2.4150943396226414
486,659,8192,2.5098039215686274
487,660,8192,2.5098039215686274
488,661,8192,2.4854368932038833
489,662,8192,2.4854368932038833
490,663,8192,2.4615384615384617
491,664,8192,2.347950702206936
492,665,8192,2.4615384615384617
493,666,8192,2.4615384615384617
494,667,8192,2.4854368932038833
495,672,8192,2.4380952380952383
496,673,8192,2.4380952380952383
497,674,8192,2.5098039215686274
498,675,8192,2.4854368932038833
499,676,8192,2.5098039215686274
500,677,8192,2.4380952380952383
501,678,8192,2.510573092246399
502,679,8192,2.4615384615384617
503,680,8192,2.5098039215686274
504,681,8192,2.4854368932038833
505,682,8192,2.5098039215686274
506,683,8192,2.4615384615384617
507,688,8192,2.4615384615384617
508,689,8192,2.4615384615384617
509,690,8192,2.4615384615384617
510,691,8192,2.392523364485981
511,692,8192,2.4854368932038833
512,693,8192,2.4380952380952383
513,694,8192,2.4854368932038833
514,695,8192,2.4380952380952383
515,696,8192,2.5098039215686274
516,697,8192,2.4615384615384617
517,698,8192,2.5098039215686274
518,699,8192,2.4150943396226414
519,704,8192,2.4854368932038833
520,705,8192,2.4854368932038833
521,706,8192,2.5090352220520673
522,707,8192,2.4615384615384617
523,708,8192,2.4150943396226414
524,709,8192,2.438821077701697
525,710,8192,2.4380952380952383
526,711,8192,2.5090352220520673
527,712,8192,2.752688172043011
528,713,8192,2.5090352220520673
529,714,8192,2.4854368932038833
530,715,8192,2.4615384615384617
531,720,8192,2.4380952380952383
532,721,8192,2.4380952380952383
533,722,8192,2.4615384615384617
534,723,8192,2.4615384615384617
535,724,8192,2.4380952380952383
536,725,8192,2.4380952380952383
537,726,8192,2.4380952380952383
538,727,8192,2.5098039215686274
539,728,8192,2.5098039215686274
540,729,8192,2.4854368932038833
541,730,8192,2.392523364485981
542,731,8192,2.4615384615384617
543,736,8192,2.4380952380952383
544,737,8192,2.4380952380952383
545,738,8192,2.5346534653465347
546,739,8192,2.4615384615384617
547,740,8192,2.5346534653465347
548,741,8192,2.4380952380952383
549,742,8192,2.4607990387503755
550,743,8192,2.371056439942113
551,744,8192,2.4615384615384617
552,745,8192,2.5098039215686274
553,746,8192,2.4854368932038833
554,747,8192,2.4615384615384617
555,752,8192,2.4615384615384617
556,753,8192,2.4615384615384617
557,754,8192,2.4615384615384617
558,755,8192,2.392523364485981
559,756,8192,2.4380952380952383
560,757,8192,2.4854368932038833
561,758,8192,2.4854368932038833
562,759,8192,2.4150943396226414
563,760,8192,2.5346534653465347
564,761,8192,2.4380952380952383
565,762,8192,2.5098039215686274
566,763,8192,2.5098039215686274
567,768,8192,2.4615384615384617
568,769,8192,2.4380952380952383
569,770,8192,2.4854368932038833
570,771,8192,2.4380952380952383
571,772,8192,2.4615384615384617
572,773,8192,2.4150943396226414
573,774,8192,2.4380952380952383
574,775,8192,2.4615384615384617
575,776,8192,2.4854368932038833
576,777,8192,2.4150943396226414
577,778,8192,2.4380952380952383
578,779,8192,2.4615384615384617
579,784,8192,2.4380952380952383
580,785,8192,2.4854368932038833
581,786,8192,2.437369830407617
582,787,8192,2.4615384615384617
583,788,8192,2.5346534653465347
584,789,8192,2.4380952380952383
585,790,8192,2.4854368932038833
586,791,8192,2.4607990387503755
587,792,8192,2.4615384615384617
588,793,8192,2.3703703703703702
589,794,8192,2.5346534653465347
590,795,8192,2.4615384615384617
591,800,8192,2.4615384615384617
592,801,8192,2.4615384615384617
593,802,8192,2.392523364485981
594,803,8192,2.4615384615384617
595,804,8192,2.4380952380952383
596,805,8192,2.5098039215686274
597,806,8192,2.3932223196026876
598,807,8192,2.4380952380952383
599,808,8192,2.5346534653465347
600,809,8192,2.4615384615384617
601,810,8192,2.4380952380952383
602,811,8192,2.5098039215686274
603,816,8192,2.4854368932038833
604,817,8192,2.4380952380952383
605,818,8192,2.4615384615384617
606,819,8192,2.4607990387503755
607,820,8192,2.4615384615384617
608,821,8192,2.4854368932038833
609,822,8192,2.4380952380952383
610,824,8192,2.4380952380952383
611,825,8192,2.5346534653465347
612,826,8192,2.5098039215686274
613,827,8192,2.4150943396226414
614,832,8192,2.4615384615384617
615,833,8192,2.4854368932038833
616,834,8192,2.5098039215686274
617,835,8192,2.4615384615384617
618,836,8192,2.5346534653465347
619,837,8192,2.4854368932038833
620,838,8192,2.510573092246399
621,839,8192,2.4607990387503755
622,840,8192,2.392523364485981
623,841,8192,2.392523364485981
624,842,8192,2.5346534653465347
625,843,8192,2.4380952380952383
626,848,8192,2.4615384615384617
627,849,8192,2.4380952380952383
628,850,8192,2.5346534653465347
629,851,8192,2.4615384615384617
630,852,8192,2.5090352220520673
631,853,8192,2.4615384615384617
632,854,8192,2.4615384615384617
