idx,og Index,data (B),bandwidth (GB/s)
0,0,16384,2.3689994216310004
1,1,16384,2.380011621150494
2,2,16384,2.39112667834209
3,3,16384,2.39112667834209
4,4,16384,2.3689994216310004
5,5,16384,2.39112667834209
6,6,16384,2.380011621150494
7,7,16384,2.3151052705948847
8,8,16384,2.3689994216310004
9,9,16384,2.3689994216310004
10,12,16384,2.33656588705077
11,13,16384,2.3580886586067935
12,14,16384,2.3154324477105708
13,15,16384,2.3580886586067935
14,16,16384,2.3472779369627506
15,17,16384,2.3580886586067935
16,18,16384,2.3472779369627506
17,19,16384,2.3472779369627506
18,20,16384,2.3580886586067935
19,21,16384,2.2742920599666854
20,22,16384,2.3472779369627506
21,23,16384,2.380011621150494
22,24,16384,2.346941698897006
23,25,16384,2.3580886586067935
24,26,16384,2.3472779369627506
25,27,16384,2.3693420101229212
26,28,16384,2.305008441193022
27,29,16384,2.3472779369627506
28,30,16384,2.3580886586067935
29,31,16384,2.3689994216310004
30,32,16384,2.33656588705077
31,33,16384,2.35774931644841
32,34,16384,2.3472779369627506
33,35,16384,2.3580886586067935
34,36,16384,2.3472779369627506
35,37,16384,2.3580886586067935
36,38,16384,2.3472779369627506
37,39,16384,2.3154324477105708
38,40,16384,2.3154324477105708
39,41,16384,2.3472779369627506
40,42,16384,2.3472779369627506
41,43,16384,2.35774931644841
42,44,16384,2.3154324477105708
43,45,16384,2.3151052705948847
44,46,16384,2.3580886586067935
45,47,16384,2.35774931644841
46,48,16384,2.3472779369627506
47,49,16384,2.358428098459767
48,50,16384,2.3472779369627506
49,51,16384,2.3259511641113004
50,52,16384,2.3472779369627506
51,53,16384,2.3689994216310004
52,54,16384,2.3472779369627506
53,55,16384,2.3472779369627506
54,56,16384,2.3580886586067935
55,57,16384,2.3259511641113004
56,58,16384,2.3472779369627506
57,59,16384,2.3580886586067935
58,60,16384,2.33656588705077
59,61,16384,2.3472779369627506
60,62,16384,2.2742920599666854
61,63,16384,2.33656588705077
62,64,16384,2.3580886586067935
63,65,16384,2.3803574022955107
64,66,16384,2.3154324477105708
65,67,16384,2.305008441193022
66,68,16384,2.3580886586067935
67,69,16384,2.3154324477105708
68,70,16384,2.3362327106801652
69,71,16384,2.3472779369627506
70,72,16384,2.33656588705077
71,73,16384,2.2946778711484592
72,76,16384,2.380011621150494
73,77,16384,2.3689994216310004
74,78,16384,2.3259511641113004
75,79,16384,2.380011621150494
76,80,16384,2.39112667834209
77,81,16384,2.380011621150494
78,82,16384,2.3689994216310004
79,83,16384,2.380011621150494
80,84,16384,2.3803574022955107
81,85,16384,2.3689994216310004
82,86,16384,2.39112667834209
83,87,16384,2.380011621150494
84,88,16384,2.39112667834209
85,89,16384,2.380011621150494
86,90,16384,2.3686569321960387
87,91,16384,2.3580886586067935
88,92,16384,2.380011621150494
89,93,16384,2.380011621150494
90,94,16384,2.380011621150494
91,95,16384,2.2539551520154077
92,96,16384,2.380011621150494
93,97,16384,2.380011621150494
94,98,16384,2.380011621150494
95,99,16384,2.3686569321960387
96,100,16384,2.3686569321960387
97,101,16384,2.2742920599666854
98,102,16384,2.3689994216310004
99,103,16384,2.3580886586067935
100,104,16384,2.2844394868934748
101,105,16384,2.3803574022955107
102,106,16384,2.380011621150494
103,107,16384,2.3803574022955107
104,108,16384,2.39112667834209
105,109,16384,2.380011621150494
106,110,16384,2.347614271385585
107,111,16384,2.3259511641113004
108,112,16384,2.3689994216310004
109,113,16384,2.3580886586067935
110,114,16384,2.3580886586067935
111,115,16384,2.2642343836373686
112,116,16384,2.39112667834209
113,117,16384,2.380011621150494
114,118,16384,2.380011621150494
115,119,16384,2.3689994216310004
116,120,16384,2.39112667834209
117,121,16384,2.3580886586067935
118,122,16384,2.380011621150494
119,123,16384,2.39112667834209
120,124,16384,2.3472779369627506
121,125,16384,2.391475696978543
122,126,16384,2.263921514439685
123,127,16384,2.3580886586067935
124,128,16384,2.3154324477105708
125,129,16384,2.380011621150494
126,130,16384,2.3580886586067935
127,131,16384,2.3154324477105708
128,132,16384,2.380011621150494
129,133,16384,2.380011621150494
130,134,16384,2.2057081313947227
131,135,16384,2.263921514439685
132,136,16384,2.380011621150494
133,137,16384,2.3580886586067935
134,140,16384,2.39112667834209
135,141,16384,2.3154324477105708
136,142,16384,2.3259511641113004
137,143,16384,2.3580886586067935
138,144,16384,2.3154324477105708
139,145,16384,2.3686569321960387
140,146,16384,2.3580886586067935
141,147,16384,2.3580886586067935
142,148,16384,2.3472779369627506
143,149,16384,2.3580886586067935
144,150,16384,2.3580886586067935
145,151,16384,2.35774931644841
146,152,16384,2.3472779369627506
147,153,16384,2.346941698897006
148,154,16384,2.33656588705077
149,155,16384,2.3472779369627506
150,156,16384,2.358428098459767
151,157,16384,2.3689994216310004
152,158,16384,2.3472779369627506
153,159,16384,2.3689994216310004
154,160,16384,2.346941698897006
155,161,16384,2.3693420101229212
156,162,16384,2.3472779369627506
157,163,16384,2.346941698897006
158,164,16384,2.3472779369627506
159,165,16384,2.3580886586067935
160,166,16384,2.3580886586067935
161,167,16384,2.3689994216310004
162,168,16384,2.3689994216310004
163,169,16384,2.3580886586067935
164,170,16384,2.3580886586067935
165,171,16384,2.2946778711484592
166,172,16384,2.3362327106801652
167,173,16384,2.3689994216310004
168,174,16384,2.3259511641113004
169,175,16384,2.3686569321960387
170,176,16384,2.3580886586067935
171,177,16384,2.263921514439685
172,178,16384,2.3472779369627506
173,179,16384,2.3689994216310004
174,180,16384,2.3259511641113004
175,181,16384,2.3472779369627506
176,182,16384,2.33656588705077
177,183,16384,2.3472779369627506
178,184,16384,2.3580886586067935
179,185,16384,2.3154324477105708
180,186,16384,2.3580886586067935
181,187,16384,2.3693420101229212
182,188,16384,2.3472779369627506
183,189,16384,2.380011621150494
184,190,16384,2.3472779369627506
185,191,16384,2.3689994216310004
186,192,16384,2.3472779369627506
187,193,16384,2.3472779369627506
188,194,16384,2.3154324477105708
189,195,16384,2.3472779369627506
190,196,16384,2.3472779369627506
191,197,16384,2.380011621150494
192,198,16384,2.3580886586067935
193,199,16384,2.3580886586067935
194,200,16384,2.3259511641113004
195,201,16384,2.3472779369627506
196,204,16384,2.39112667834209
197,205,16384,2.3907777615642782
198,206,16384,2.3689994216310004
199,207,16384,2.3259511641113004
200,208,16384,2.3689994216310004
201,209,16384,2.380011621150494
202,210,16384,2.380011621150494
203,211,16384,2.39112667834209
204,212,16384,2.3580886586067935
205,213,16384,2.3686569321960387
206,214,16384,2.39112667834209
207,215,16384,2.3472779369627506
208,216,16384,2.3580886586067935
209,217,16384,2.3259511641113004
210,218,16384,2.3580886586067935
211,219,16384,2.380011621150494
212,220,16384,2.380011621150494
213,221,16384,2.3689994216310004
214,222,16384,2.380011621150494
215,223,16384,2.3580886586067935
216,224,16384,2.3689994216310004
217,225,16384,2.380011621150494
218,226,16384,2.380011621150494
219,227,16384,2.3689994216310004
220,228,16384,2.3689994216310004
221,229,16384,2.326281414170098
222,230,16384,2.380011621150494
223,231,16384,2.380011621150494
224,232,16384,2.380011621150494
225,233,16384,2.3368991584652687
226,234,16384,2.33656588705077
227,235,16384,2.3689994216310004
228,236,16384,2.3686569321960387
229,237,16384,2.3689994216310004
230,238,16384,2.380011621150494
231,239,16384,2.3689994216310004
232,240,16384,2.380011621150494
233,241,16384,2.3580886586067935
234,242,16384,2.3580886586067935
235,243,16384,2.2642343836373686
236,244,16384,2.380011621150494
237,245,16384,2.39112667834209
238,246,16384,2.3686569321960387
239,247,16384,2.380011621150494
240,248,16384,2.4023460410557185
241,249,16384,2.4023460410557185
242,250,16384,2.380011621150494
243,251,16384,2.3796659404502543
244,252,16384,2.380011621150494
245,253,16384,2.380011621150494
246,254,16384,2.3259511641113004
247,255,16384,2.3689994216310004
248,256,16384,2.39112667834209
249,257,16384,2.35774931644841
250,258,16384,2.380011621150494
251,259,16384,2.3689994216310004
252,260,16384,2.3796659404502543
253,261,16384,2.3689994216310004
254,262,16384,2.3693420101229212
255,263,16384,2.3689994216310004
256,264,16384,2.380011621150494
257,265,16384,2.35774931644841
258,268,16384,2.3472779369627506
259,269,16384,2.3580886586067935
260,270,16384,2.3689994216310004
261,271,16384,2.3689994216310004
262,272,16384,2.3580886586067935
263,273,16384,2.3689994216310004
264,274,16384,2.3580886586067935
265,275,16384,2.3259511641113004
266,276,16384,2.33656588705077
267,277,16384,2.33656588705077
268,278,16384,2.3580886586067935
269,279,16384,2.3472779369627506
270,280,16384,2.294356532698502
271,281,16384,2.3472779369627506
272,282,16384,2.3580886586067935
273,283,16384,2.3472779369627506
274,284,16384,2.305008441193022
275,285,16384,2.3689994216310004
276,286,16384,2.33656588705077
277,287,16384,2.3472779369627506
278,288,16384,2.3259511641113004
279,289,16384,2.380011621150494
280,290,16384,2.3580886586067935
281,291,16384,2.2946778711484592
282,292,16384,2.3472779369627506
283,293,16384,2.3472779369627506
284,294,16384,2.3472779369627506
285,295,16384,2.3580886586067935
286,296,16384,2.263921514439685
287,297,16384,2.3689994216310004
288,298,16384,2.3580886586067935
289,299,16384,2.3580886586067935
290,300,16384,2.33656588705077
291,301,16384,2.3689994216310004
292,302,16384,2.35774931644841
293,303,16384,2.3472779369627506
294,304,16384,2.358428098459767
295,305,16384,2.33656588705077
296,306,16384,2.3580886586067935
297,307,16384,2.3686569321960387
298,308,16384,2.3472779369627506
299,309,16384,2.3580886586067935
300,310,16384,2.294356532698502
301,311,16384,2.346941698897006
302,312,16384,2.33656588705077
303,313,16384,2.3580886586067935
304,314,16384,2.3472779369627506
305,315,16384,2.3580886586067935
306,316,16384,2.3689994216310004
307,317,16384,2.35774931644841
308,318,16384,2.3472779369627506
309,319,16384,2.305008441193022
310,320,16384,2.346941698897006
311,321,16384,2.3689994216310004
312,322,16384,2.3472779369627506
313,323,16384,2.33656588705077
314,324,16384,2.3580886586067935
315,325,16384,2.3580886586067935
316,326,16384,2.3472779369627506
317,327,16384,2.3362327106801652
318,328,16384,2.3368991584652687
319,329,16384,2.3580886586067935
320,332,16384,2.326281414170098
321,333,16384,2.380011621150494
322,334,16384,2.3580886586067935
323,335,16384,2.39112667834209
324,336,16384,2.3689994216310004
325,337,16384,2.2642343836373686
326,338,16384,2.380011621150494
327,339,16384,2.3689994216310004
328,340,16384,2.3796659404502543
329,341,16384,2.3689994216310004
330,342,16384,2.3689994216310004
331,343,16384,2.4023460410557185
332,344,16384,2.263921514439685
333,345,16384,2.3472779369627506
334,346,16384,1.6721779955092877
335,347,16384,2.3689994216310004
336,348,16384,2.3796659404502543
337,349,16384,2.380011621150494
338,350,16384,2.3686569321960387
339,351,16384,2.2844394868934748
340,352,16384,2.3689994216310004
341,353,16384,2.39112667834209
342,354,16384,2.326281414170098
343,355,16384,2.39112667834209
344,356,16384,2.380011621150494
345,357,16384,2.391475696978543
346,358,16384,2.3472779369627506
347,359,16384,2.39112667834209
348,360,16384,2.3580886586067935
349,361,16384,2.3580886586067935
350,362,16384,2.380011621150494
351,363,16384,2.3803574022955107
352,364,16384,2.380011621150494
353,365,16384,2.39112667834209
354,366,16384,2.380011621150494
355,367,16384,2.3256210078069555
356,368,16384,2.3803574022955107
357,369,16384,2.380011621150494
358,370,16384,2.346941698897006
359,371,16384,2.380011621150494
360,372,16384,2.380011621150494
361,373,16384,2.380011621150494
362,374,16384,2.391475696978543
363,375,16384,2.3686569321960387
364,376,16384,2.3686569321960387
365,377,16384,2.284121009340583
366,378,16384,2.3796659404502543
367,379,16384,2.2946778711484592
368,380,16384,2.380011621150494
369,381,16384,2.3796659404502543
370,382,16384,2.3689994216310004
371,383,16384,2.3689994216310004
372,384,16384,2.2443835616438355
373,385,16384,2.380011621150494
374,386,16384,2.3693420101229212
375,387,16384,2.380011621150494
376,388,16384,2.3796659404502543
377,389,16384,2.3796659404502543
378,390,16384,2.2946778711484592
379,391,16384,2.391475696978543
380,392,16384,2.380011621150494
381,393,16384,2.39112667834209
382,396,16384,2.3472779369627506
383,397,16384,2.3689994216310004
384,398,16384,2.3580886586067935
385,399,16384,2.3580886586067935
386,400,16384,2.346941698897006
387,401,16384,2.35774931644841
388,402,16384,2.3472779369627506
389,403,16384,2.3580886586067935
390,404,16384,2.2739764052741154
391,405,16384,2.346941698897006
392,406,16384,2.3472779369627506
393,407,16384,2.3689994216310004
394,408,16384,2.3362327106801652
395,409,16384,2.2844394868934748
396,410,16384,2.305008441193022
397,411,16384,2.3689994216310004
398,412,16384,2.3472779369627506
399,413,16384,2.3580886586067935
400,414,16384,2.33656588705077
401,415,16384,2.3803574022955107
402,416,16384,2.3472779369627506
403,417,16384,2.3259511641113004
404,418,16384,2.33656588705077
405,419,16384,2.3472779369627506
406,420,16384,2.3472779369627506
407,421,16384,2.3580886586067935
408,422,16384,2.346941698897006
409,423,16384,2.380011621150494
410,424,16384,2.3580886586067935
411,425,16384,2.346941698897006
412,426,16384,2.3580886586067935
413,427,16384,2.3580886586067935
414,428,16384,2.3259511641113004
415,429,16384,2.380011621150494
416,430,16384,2.2642343836373686
417,431,16384,2.3689994216310004
418,432,16384,2.3472779369627506
419,433,16384,2.3689994216310004
420,434,16384,2.33656588705077
421,435,16384,2.3472779369627506
422,436,16384,2.33656588705077
423,437,16384,2.3472779369627506
424,438,16384,2.3580886586067935
425,439,16384,2.380011621150494
426,440,16384,2.3472779369627506
427,441,16384,2.35774931644841
428,442,16384,2.3472779369627506
429,443,16384,2.3689994216310004
430,444,16384,2.3580886586067935
431,445,16384,2.3689994216310004
432,446,16384,2.2844394868934748
433,447,16384,2.2844394868934748
434,448,16384,2.3580886586067935
435,449,16384,2.3580886586067935
436,450,16384,2.3693420101229212
437,451,16384,2.3580886586067935
438,452,16384,2.3154324477105708
439,453,16384,2.35774931644841
440,454,16384,2.305008441193022
441,455,16384,2.3689994216310004
442,456,16384,2.3154324477105708
443,457,16384,2.35774931644841
