idx,og Index,data (B),bandwidth (GB/s)
0,5,16785408,12.321744983883388
1,7,16785408,12.171638776876117
2,9,16785408,12.318552896936179
3,11,16785408,12.322613372995743
4,13,16785408,12.221542010210946
5,15,16785408,11.650416864479482
6,17,16785408,12.319140550747974
7,19,16785408,12.319140550747974
8,21,16785408,12.323762367514515
9,23,16785408,12.29315664623594
10,25,16785408,12.089157258215529
11,27,16785408,12.31711564158615
12,29,16785408,12.321166125801296
13,31,16785408,12.323472836892137
14,37,16785408,12.321446503392812
15,39,16785408,12.325219274896742
16,41,16785408,12.248376591392852
17,43,16785408,11.843228674239752
18,45,16785408,11.947632419043146
19,47,16785408,12.04806187751399
20,49,16785408,12.327246849596555
21,51,16785408,12.318272651017178
22,53,16785408,12.320587322104512
23,55,16785408,12.149367357973114
24,57,16785408,12.317983378281689
25,59,16785408,12.182663659964973
26,61,16785408,12.224684012162482
27,63,16785408,12.32636875545255
28,69,16785408,12.1891748815424
29,71,16785408,12.285958336352598
30,73,16785408,12.208741493728853
31,75,16785408,12.108700811627532
32,77,16785408,12.323183319873724
33,79,16785408,12.201641675171626
34,81,16785408,12.324640090341784
35,83,16785408,12.327536557583288
36,85,16785408,11.877554832847911
37,87,16785408,12.153026670846694
38,89,16785408,12.322034433321319
39,91,16785408,11.628721308204543
40,93,16785408,12.257822067632906
41,95,16785408,12.32319236707464
42,101,16785408,12.31999953025868
43,103,16785408,12.331883812013322
44,105,16785408,12.148233066708354
45,107,16785408,12.020728000847912
46,109,16785408,12.325219274896742
47,111,16785408,12.327527504002585
48,113,16785408,12.330434386567536
49,115,16785408,11.994614881107207
50,117,16785408,12.329266035368745
51,119,16785408,12.327536557583288
52,121,16785408,12.329275091503254
53,123,16785408,12.331593899664334
54,125,16785408,12.325508887588363
55,127,16785408,12.321744983883388
56,133,16785408,12.322613372995743
57,135,16785408,12.326377807331317
58,137,16785408,12.327246849596555
59,139,16785408,12.327536557583288
60,141,16785408,12.324350518476532
61,143,16785408,12.328695525714089
62,145,16785408,12.263266983499603
63,147,16785408,11.992155456280242
64,149,16785408,12.327826279187448
65,151,16785408,12.236661561195307
66,153,16785408,12.097251320503423
67,155,16785408,10.733957168810955
68,157,16785408,11.133823514780065
69,159,16785408,12.287100505087475
70,165,16785408,11.557492047316744
71,167,16785408,11.775696843334073
72,169,16785408,11.748267723810084
73,171,16785408,12.120443300666338
74,173,16785408,10.51576292401896
75,175,16785408,12.301508244778308
76,177,16785408,12.115124446766925
77,179,16785408,10.60141298210467
78,181,16785408,10.436466870852096
79,183,16785408,12.089444590492173
80,185,16785408,11.48661911543207
81,187,16785408,11.770139702587684
82,189,16785408,11.69014249300071
83,191,16785408,12.03673535243436
84,197,16785408,10.873251479853394
85,199,16785408,11.36762975950784
86,201,16785408,10.78272801205632
87,203,16785408,11.27284180863431
88,205,16785408,12.203069849880807
89,207,16785408,12.256667435808314
90,209,16785408,10.691955589810881
91,211,16785408,11.920743364742444
92,213,16785408,12.054707002691686
93,215,16785408,11.707354634597827
94,217,16785408,12.151618981981871
95,219,16785408,12.138393851476241
96,221,16785408,11.746426122129071
97,223,16785408,11.85983059613542
98,229,16785408,12.018249251786404
99,231,16785408,12.009727750346832
100,233,16785408,11.726722654555287
101,235,16785408,11.2549429019144
102,237,16785408,11.821875396165819
103,239,16785408,12.322613372995743
104,241,16785408,11.92941878811138
105,243,16785408,10.781619856454105
106,245,16785408,11.733805330520365
107,247,16785408,11.70710150790219
108,249,16785408,10.75222630051694
109,251,16785408,10.89900693857356
110,253,16785408,11.82346589240168
111,255,16785408,12.07970033571899
112,261,16785408,11.733288596233695
113,263,16785408,12.046125095806888
114,265,16785408,11.479580384859222
115,267,16785408,11.726468689657485
116,269,16785408,10.776746676528258
117,271,16785408,11.185581512818958
118,273,16785408,12.238936736771187
119,275,16785408,12.216142965790537
120,277,16785408,11.936748504475906
121,279,16785408,11.249150051368865
122,281,16785408,10.901498570532313
123,283,16785408,11.950073613796677
124,285,16785408,11.334476769783025
125,287,16785408,10.246050620424946
126,293,16785408,12.229529241962476
127,295,16785408,12.13783209198062
128,297,16785408,12.128298892980931
129,299,16785408,10.448934060331556
130,301,16785408,11.991050329040425
131,303,16785408,12.141493240784877
132,305,16785408,11.837348836815693
133,307,16785408,11.775168152469464
134,309,16785408,11.482595927112428
135,311,16785408,11.598636804616953
136,313,16785408,12.294597320524117
137,315,16785408,12.226963641965911
138,317,16785408,12.135585573861517
139,319,16785408,11.793170314954656
140,325,16785408,12.10478006398034
141,327,16785408,12.190015831747738
142,329,16785408,12.291707308500074
143,331,16785408,11.937020148432188
144,333,16785408,11.653781745976644
145,335,16785408,12.330434386567536
146,337,16785408,10.956375300093601
147,339,16785408,11.446513654673522
148,341,16785408,12.108133062875643
149,343,16785408,12.179269261606667
150,345,16785408,12.255244584204297
151,347,16785408,12.171347524313099
152,349,16785408,12.119603171164927
153,351,16785408,12.054152962298025
154,357,16785408,11.633879584475785
155,359,16785408,12.0163306447283
156,361,16785408,12.265552064303982
157,363,16785408,12.047508447764537
158,365,16785408,12.197678246367492
159,367,16785408,11.74536581884237
160,369,16785408,11.881321332204571
161,371,16785408,11.945727789208043
162,373,16785408,12.254671957304987
163,375,16785408,12.2518006826098
164,377,16785408,11.472801202410562
165,379,16785408,11.624847550946205
166,381,16785408,12.201934379395697
167,383,16785408,12.15076572937569
168,389,16785408,12.028722041156794
169,391,16785408,11.794761384109888
170,393,16785408,12.267282123090798
171,395,16785408,11.458766169711227
172,397,16785408,11.999279417357464
173,399,16785408,10.698279521371182
174,401,16785408,11.010882699066803
175,403,16785408,11.982011358542177
176,405,16785408,12.266708370756177
177,407,16785408,11.664406807928685
178,409,16785408,11.594278499059218
179,411,16785408,11.644726874141496
180,413,16785408,11.090978169441712
181,415,16785408,11.490393415757303
182,421,16785408,12.067472679000089
183,423,16785408,12.260400635465551
184,425,16785408,12.008619382163145
185,427,16785408,10.2787837221336
186,429,16785408,11.253494130022466
187,431,16785408,11.733805330520365
188,433,16785408,10.944259635734861
189,435,16785408,11.520171305621995
190,437,16785408,11.537147888413026
191,439,16785408,12.15386264043398
192,441,16785408,12.075798343026351
193,443,16785408,11.403711466277153
194,445,16785408,9.964599668507763
195,447,16785408,10.736820289762369
196,453,16785408,11.73118931869201
197,455,16785408,11.426814681789498
198,457,16785408,11.788134760001237
199,459,16785408,11.74064198801973
200,461,16785408,11.469790801840862
201,465,16793600,11.31115995023887
202,467,16793600,12.116000080804117
203,469,16793600,12.264655275665538
204,475,16793600,12.204766469450655
205,477,16793600,12.305203274431474
206,479,16793600,11.882275360637133
207,481,16793600,12.164867801521188
208,483,16793600,12.045088751624554
209,485,16793600,12.328627337550646
210,487,16793600,12.324573924619719
211,489,16793600,12.324573924619719
212,491,16793600,11.560322793597821
213,493,16793600,11.822307763246911
214,495,16793600,12.326889834147487
215,497,16793600,12.326021266085899
216,499,16793600,12.225227927237997
217,501,16793600,11.812204406505941
218,507,16793600,12.000468768311261
219,509,16793600,12.328916969072726
220,511,16793600,12.308675572846388
221,513,16793600,12.32109265177594
222,515,16793600,12.248053421864105
223,517,16793600,12.008431987781055
224,519,16793600,12.122717100988956
225,521,16793600,12.141508260818012
226,523,16793600,11.769290069381176
227,525,16793600,11.411757910580624
228,527,16793600,12.315029988992913
229,529,16793600,12.326889834147487
230,531,16793600,12.116559548168691
231,533,16793600,12.123846081097568
232,539,16793600,12.323696639338728
233,541,16793600,12.302039327320129
234,543,16793600,12.295401231765853
235,545,16793600,12.08530873899314
236,547,16793600,11.984026626095742
237,549,16793600,12.313296315821503
238,551,16793600,12.05726511681337
239,553,16793600,12.31242063526976
240,555,16793600,12.321960525350356
241,557,16793600,12.3274689475303
242,559,16793600,11.988406790308533
243,561,16793600,12.276992628072977
244,563,16793600,11.61919087158461
245,565,16793600,12.031005974811228
246,571,16793600,12.289651609277247
247,573,16793600,12.213571685715221
248,575,16793600,12.242053483170967
249,577,16793600,11.972270779093012
250,579,16793600,12.005684856491689
251,581,16793600,12.116559548168691
252,583,16793600,12.27986533798586
253,585,16793600,12.304914755991406
254,587,16793600,12.015038831235266
255,589,16793600,12.039570797789324
256,591,16793600,11.878232835601313
257,593,16793600,12.324863365720446
258,595,16793600,12.264368655517417
259,597,16793600,12.282748376121136
260,603,16793600,12.222104968214056
261,605,16793600,12.30405829657194
262,607,16793600,12.30549180640188
263,609,16793600,12.287340679280623
264,611,16793600,12.286477675448992
265,613,16793600,12.295986393113381
266,615,16793600,12.33006657836541
267,617,16793600,12.291945414674563
268,619,16793600,12.238921923088416
269,621,16793600,12.142070086443997
270,623,16793600,12.33239360909185
271,625,16793600,12.21414020049006
272,627,16793600,12.14994989853096
273,629,16793600,12.097845474690018
274,635,16793600,12.126078404755233
275,637,16793600,12.037905179705533
276,639,16793600,12.245204503577618
277,641,16793600,12.281598591173333
278,643,16793600,12.319068088789777
279,645,16793600,12.164876613456439
280,647,16793600,12.226660929594917
281,651,16793600,12.319068088789777
282,653,16793600,12.237200693705642
283,655,16793600,12.32861828678485
284,657,16793600,12.21897471381787
285,659,16793600,12.111526201156803
286,661,16793600,11.87798079419002
287,667,16793600,12.107064352663235
288,669,16793600,12.328328669295756
289,671,16793600,12.304923771987863
290,673,16793600,12.321381929383314
291,675,16793600,12.3187789198182
292,677,16793600,12.325731770598239
293,679,16793600,11.979923128065675
294,681,16793600,12.314452043694834
295,683,16793600,12.31444301372997
296,685,16793600,12.315029988992913
297,687,16793600,11.127447894752535
298,689,16793600,11.832178316879398
299,691,16793600,12.0858653754811
300,693,16793600,12.122437076455318
301,699,16793600,12.28101479841222
302,701,16793600,11.935240856822027
303,703,16793600,12.051450600362255
304,705,16793600,12.223528341370212
305,707,16793600,11.89628156195366
306,709,16793600,11.22502316043329
307,711,16793600,11.901947276958971
308,713,16793600,12.182667468514301
309,715,16793600,12.312429662268917
310,717,16793600,12.099248768180106
311,719,16793600,12.319366308510865
312,721,16793600,11.916270488895195
313,723,16793600,12.324863365720446
314,725,16793600,12.32920661420352
315,731,16793600,12.251779556097693
316,733,16793600,12.317044191033881
317,735,16793600,11.691678757313564
318,737,16793600,12.32341629615062
319,739,16793600,11.536181428874663
320,741,16793600,12.33123451124369
321,743,16793600,11.911942868978276
322,745,16793600,12.270112570041187
323,747,16793600,12.306357483504662
324,749,16793600,11.92547712986397
325,751,16793600,11.912213253131695
326,753,16793600,12.322258885129656
327,755,16793600,12.25120753211149
328,757,16793600,12.32920661420352
329,763,16793600,12.330655044021796
330,765,16793600,12.290515059057206
331,767,16793600,12.083360915001453
332,769,16793600,12.085030439976396
333,771,16793600,12.323117880320405
334,773,16793600,12.19115760680584
335,775,16793600,12.329785945295091
336,777,16793600,11.882275360637133
337,779,16793600,11.698715715969538
338,781,16793600,11.970359219121098
339,783,16793600,12.33123451124369
340,785,16793600,11.791502950403451
341,787,16793600,12.095057286159998
342,789,16793600,12.326600297859565
343,795,16793600,12.328916969072726
344,797,16793600,12.326021266085899
345,799,16793600,11.897899787173143
346,801,16793600,12.321671220574467
347,803,16793600,12.102588346531142
348,805,16793600,12.278428815001769
349,807,16793600,12.212719012778063
350,809,16793600,11.649884670747992
351,811,16793600,12.32139096952742
352,813,16793600,12.322548217502485
353,815,16793600,12.326021266085899
354,817,16793600,12.065026538805279
355,819,16793600,12.321101691495567
356,821,16793600,12.322258885129656
357,827,16793600,11.646782147833186
358,829,16793600,12.326889834147487
359,831,16793600,12.244918791811736
360,833,16793600,12.24148236700538
361,835,16793600,12.32312692301201
362,837,16793600,12.272112104621627
363,839,16793600,12.323986039234565
364,841,16793600,12.3274689475303
365,843,16793600,12.321969566343508
366,845,16793600,12.227515550517063
367,847,16793600,12.32920661420352
368,849,16793600,12.324863365720446
369,851,16793600,12.330075631257786
370,853,16793600,12.215268503728531
371,859,16793600,12.198232906523021
372,861,16793600,12.19794938246138
373,863,16793600,12.202487349626956
374,865,16793600,12.31299838990184
375,867,16793600,12.167132888918836
376,869,16793600,12.331515210259031
377,871,16793600,12.329496272943988
378,873,16793600,12.275556777081572
379,875,16793600,12.21640590219077
380,877,16793600,12.330075631257786
381,879,16793600,12.291090759652
382,881,16793600,12.255785220166407
383,883,16793600,12.320224900446926
384,885,16793600,12.325722724083365
385,891,16793600,12.33006657836541
386,893,16793600,12.322249843711937
387,895,16793600,12.324564879804376
388,897,16793600,12.32515282041647
389,899,16793600,12.327758524627109
390,901,16793600,12.32341629615062
391,903,16793600,12.325731770598239
392,905,16793600,12.330365330833036
393,907,16793600,11.947196034295828
394,909,16793600,12.1852132680789
395,911,16793600,12.329785945295091
396,913,16793600,12.31994471518711
397,915,16793600,12.325731770598239
398,917,16793600,12.329496272943988
399,923,16793600,12.326889834147487
400,925,16793600,12.328048115328796
401,927,16793600,12.322258885129656
402,929,16793600,12.324275452722794
403,931,16793600,12.325731770598239
404,933,16793600,12.327459898465234
405,935,16793600,12.179831216039409
406,937,16793600,12.327758524627109
407,939,16793600,12.330944770825027
408,941,16793600,12.33006657836541
409,943,16793600,12.22693688787412
410,945,16793600,12.252628752703172
411,947,16793600,12.328337719636322
412,949,16793600,12.328627337550646
413,955,16793600,12.118518090894659
414,957,16793600,12.323995083200323
415,959,16793600,12.242910257344901
416,961,16793600,12.327758524627109
417,963,16793600,12.331804977485879
418,965,16793600,12.325442288708748
419,967,16793600,12.191440815221297
420,969,16793600,12.321960525350356
421,971,16793600,12.292242322655257
422,973,16793600,12.20362236904447
423,975,16793600,12.33006657836541
424,977,16793600,12.326600297859565
425,979,16793600,12.323407253034327
426,981,16793600,12.323407253034327
427,983,16809984,11.53374532834841
428,985,16809984,11.838642181805376
429,987,16809984,12.084020323601889
430,989,16809984,11.894675765406486
431,991,16809984,12.082630608976663
432,993,16809984,10.155525281603136
433,995,16809984,11.216788498944046
434,1001,16818176,12.078239861652529
435,1003,16818176,12.171102870723368
436,1005,16818176,11.960595449075905
437,1007,16818176,12.055798163190989
438,1009,16818176,11.79629337379017
439,1011,16818176,12.116954985889638
440,1013,16818176,12.00183829301363
441,1015,16818176,12.314548559144068
442,1017,16818176,12.272574097681895
443,1019,16818176,12.291804891382599
444,1021,16818176,11.475119420368568
445,1023,16818176,12.166031533838545
446,1025,16818176,12.298123638065432
447,1027,16818176,12.305610269347952
448,1035,16818176,12.271714424768494
449,1037,16818176,11.439154036548048
450,1039,16818176,12.214096683389641
451,1041,16818176,12.307636465290823
452,1043,16818176,12.173648936716942
453,1045,16818176,12.069641201411196
454,1047,16818176,12.223186745779563
455,1049,16818176,11.740436998254799
456,1051,16818176,12.116666906816905
457,1053,16818176,12.107176691805101
458,1055,16818176,11.899664056286845
459,1057,16818176,11.889165688755673
460,1059,16818176,12.154777012982883
461,1065,16818176,12.27055942892664
462,1067,16818176,11.859654467244905
463,1069,16818176,12.28978390433682
464,1071,16818176,12.311961247522882
465,1073,16818176,11.988423714847013
466,1077,16818176,12.207296864736175
467,1079,16818176,11.876001660843357
468,1081,16818176,11.951891616849872
469,1085,16818176,12.070472794710808
470,1087,16818176,12.318012029308623
471,1097,16818176,12.321775348648083
472,1099,16818176,12.324086823155088
473,1101,16818176,12.104667063961607
474,1103,16818176,12.22490152508012
475,1105,16818176,12.23741708650944
476,1107,16818176,12.188320554259128
477,1109,16818176,12.200486911708804
478,1111,16818176,12.27657853628626
479,1113,16818176,12.318300739764155
480,1115,16818176,12.276005033561946
481,1117,16818176,12.194259230793772
482,1121,16818176,12.301011030420145
483,1123,16818176,12.323797841416116
484,1129,16818176,12.285770847715161
485,1131,16818176,12.116387570494478
486,1133,16818176,12.071581764048911
487,1135,16818176,12.191996195568649
488,1137,16818176,12.0907436110528
489,1139,16818176,12.284038950908183
490,1141,16818176,12.15983896949733
491,1143,16818176,12.101322511476637
492,1145,16818176,11.221056775230934
493,1147,16818176,12.284335043733908
494,1149,16818176,12.32205520762204
495,1151,16818176,12.29928382907553
496,1153,16818176,12.284335043733908
497,1155,16818176,12.067424179369212
498,1161,16818176,12.315134686680565
499,1163,16818176,12.213821706794366
500,1165,16818176,12.117234348375847
501,1167,16818176,12.114162069340571
502,1169,16818176,12.040883303884144
503,1171,16818176,11.835084627921443
504,1173,16818176,11.310404750616188
505,1175,16818176,12.01720604669641
506,1177,16818176,12.124773266661476
507,1179,16818176,12.15338044423183
508,1181,16818176,12.326399165056072
509,1183,16818176,12.307348254501415
510,1185,16818176,12.237141058896718
511,1187,16818176,11.297268612622876
512,1195,16818176,11.964135003087394
513,1197,16818176,12.027381350817121
514,1199,16818176,12.004305459196638
515,1201,16818176,11.44837360325926
516,1203,16818176,12.079350258707125
517,1205,16818176,12.012536677209132
518,1207,16818176,12.184929621139451
519,1209,16818176,11.863126152847776
520,1211,16818176,11.98705656622676
521,1213,16818176,12.15786992993647
522,1215,16818176,12.010889530681796
523,1217,16818176,10.891542920053103
524,1227,16818176,12.313980519542326
525,1229,16818176,12.206153962277297
526,1231,16818176,11.984049936581682
527,1233,16818176,12.122256339287002
528,1235,16818176,12.195674054478951
529,1237,16818176,12.099093836418625
530,1239,16818176,11.895085566202411
531,1243,16818176,12.176187252712246
532,1245,16818176,11.391055629193795
533,1247,16818176,12.143552063725183
534,1249,16818176,12.084627434073436
535,1251,16818176,12.034817454524637
536,1257,16818176,10.615457833378569
537,1259,16818176,11.892124890753118
538,1261,16818176,11.96768516877903
539,1263,16818176,12.186907436124114
540,1265,16818176,12.153933763271771
541,1267,16818176,11.880834037406787
542,1269,16818176,10.931185856813233
543,1271,16818176,11.61998661000215
544,1273,16818176,12.118902061157373
545,1275,16818176,11.896970400070172
546,1277,16818176,12.142421065703253
547,1279,16818176,11.975584816558575
548,1281,16818176,11.85510670753198
549,1283,16818176,12.195682898159355
550,1289,16818176,11.91747282493162
551,1291,16818176,12.31772333238609
552,1293,16818176,12.316857322806966
553,1295,16818176,12.059947739339199
554,1297,16818176,12.328712374839368
555,1299,16818176,11.202154883590193
556,1301,16818176,12.326968350997552
557,1303,16818176,11.063730578810329
