idx,og Index,data (B),bandwidth (GB/s)
0,4,8192,1.003921568627451
1,5,8192,1.2132701421800949
2,6,8192,2.4607990387503755
3,7,8192,2.4854368932038833
4,8,8192,2.4380952380952383
5,9,8192,1.1689497716894977
6,10,8192,1.1428571428571428
7,11,8192,2.4854368932038833
8,12,8192,2.4854368932038833
9,13,8192,2.3703703703703702
10,14,8192,2.4615384615384617
11,15,8192,0.8590604026845637
12,16,8192,1.1743119266055047
13,17,8192,0.9014084507042254
14,18,8192,1.1428571428571428
15,19,8192,2.5098039215686274
16,20,8192,1.0987124463519313
17,21,8192,1.1687829932943359
18,22,8192,2.4615384615384617
19,23,8192,2.4861911987860394
20,24,8192,2.4615384615384617
21,25,8192,2.3703703703703702
22,26,8192,1.1797235023041475
23,27,8192,2.4615384615384617
24,28,8192,2.4854368932038833
25,29,8192,2.4615384615384617
26,30,8192,2.4854368932038833
27,31,8192,2.4607990387503755
28,36,8192,1.225063556153731
29,37,8192,2.4615384615384617
30,38,8192,1.1377777777777778
31,39,8192,2.5346534653465347
32,40,8192,1.0711297071129706
33,41,8192,0.8050314465408805
34,42,8192,2.4158065467413743
35,43,8192,2.4854368932038833
36,44,8192,1.127908577722704
37,45,8192,1.1906976744186046
38,46,8192,2.245614035087719
39,47,8192,2.4615384615384617
40,48,8192,2.4150943396226414
41,49,8192,2.4854368932038833
42,50,8192,2.3486238532110093
43,51,8192,2.5346534653465347
44,52,8192,1.0364372469635628
45,53,8192,1.3061224489795917
46,54,8192,2.3703703703703702
47,55,8192,1.0940170940170941
48,56,8192,2.3703703703703702
49,57,8192,2.4615384615384617
50,58,8192,2.0317460317460316
51,59,8192,2.3703703703703702
52,60,8192,1.0199203187250996
53,61,8192,1.4797687861271676
54,62,8192,2.4615384615384617
55,63,8192,2.4854368932038833
56,68,8192,2.5098039215686274
57,69,8192,2.5098039215686274
58,70,8192,2.4380952380952383
59,71,8192,2.048512128032008
60,72,8192,2.3703703703703702
61,73,8192,1.514792899408284
62,74,8192,2.4615384615384617
63,75,8192,1.3333333333333333
64,76,8192,2.437369830407617
65,77,8192,2.1333333333333333
66,78,8192,2.4380952380952383
67,79,8192,1.1327433628318584
68,80,8192,1.2427184466019416
69,81,8192,1.5515151515151515
70,82,8192,2.4380952380952383
71,83,8192,2.245614035087719
72,84,8192,2.4380952380952383
73,85,8192,2.4615384615384617
74,86,8192,1.1379358244200584
75,87,8192,1.062240663900415
76,88,8192,2.3703703703703702
77,89,8192,2.0317460317460316
78,90,8192,2.4380952380952383
79,91,8192,1.4545454545454546
80,92,8192,1.3063307287513952
81,93,8192,2.4615384615384617
82,94,8192,1.1179039301310043
83,95,8192,0.9962300863431838
84,100,8192,2.4150943396226414
85,101,8192,1.3061224489795917
86,102,8192,2.4615384615384617
87,103,8192,0.839344262295082
88,104,8192,1.1962616822429906
89,105,8192,1.1377777777777778
90,106,8192,2.4854368932038833
91,107,8192,2.4615384615384617
92,108,8192,2.4380952380952383
93,109,8192,1.1277533039647578
94,110,8192,0.8421052631578947
95,111,8192,1.103448275862069
96,112,8192,2.4380952380952383
97,113,8192,1.062240663900415
98,114,8192,2.392523364485981
99,115,8192,2.5098039215686274
100,116,8192,1.0490459725957229
101,117,8192,1.1130434782608696
102,118,8192,0.9552238805970149
103,119,8192,1.1636363636363636
104,120,8192,2.4615384615384617
105,121,8192,1.0893617021276596
106,122,8192,1.4301675977653632
107,123,8192,2.4854368932038833
108,124,8192,2.392523364485981
109,125,8192,2.5098039215686274
110,126,8192,2.5098039215686274
111,127,8192,2.4380952380952383
112,132,8192,2.4615384615384617
113,133,8192,2.327272727272727
114,134,8192,2.438821077701697
115,135,8192,2.4854368932038833
116,136,8192,1.248780487804878
117,137,8192,2.462278328824767
118,138,8192,0.9175627240143369
119,139,8192,2.4854368932038833
120,140,8192,1.1179039301310043
121,141,8192,1.3403141361256545
122,142,8192,2.0813008130081303
123,143,8192,0.9411764705882353
124,144,8192,1.3061224489795917
125,145,8192,2.4615384615384617
126,146,8192,2.5098039215686274
127,147,8192,1.4382022471910112
128,148,8192,2.5098039215686274
129,149,8192,2.4380952380952383
130,150,8192,1.0623784204383349
131,151,8192,1.0940170940170941
132,152,8192,2.4854368932038833
133,153,8192,1.0987124463519313
134,154,8192,2.347950702206936
135,155,8192,1.0118577075098814
136,156,8192,2.1512605042016806
137,157,8192,1.1277533039647578
138,158,8192,2.4150943396226414
139,159,8192,0.9377289377289377
140,164,8192,2.4615384615384617
141,165,8192,1.0491803278688525
142,166,8192,2.5090352220520673
143,167,8192,1.0281124497991967
144,168,8192,2.4143825523135867
145,169,8192,1.0847457627118644
146,170,8192,2.3063063063063063
147,171,8192,1.158371040723982
148,172,8192,1.1906976744186046
149,173,8192,2.4854368932038833
150,174,8192,2.5098039215686274
151,175,8192,2.4854368932038833
152,176,8192,2.437369830407617
153,177,8192,1.0711297071129706
154,178,8192,1.2866342076331083
155,179,8192,2.4615384615384617
156,180,8192,2.327272727272727
157,181,8192,1.248780487804878
158,182,8192,0.9808429118773946
159,183,8192,2.4854368932038833
160,184,8192,2.4380952380952383
161,185,8192,1.0448979591836736
162,186,8192,2.5090352220520673
163,187,8192,2.4854368932038833
164,188,8192,2.327272727272727
165,189,8192,1.1636363636363636
166,190,8192,2.3932223196026876
167,191,8192,2.56
168,196,8192,1.1327433628318584
169,197,8192,1.0940170940170941
170,198,8192,2.392523364485981
171,199,8192,2.4615384615384617
172,200,8192,2.4615384615384617
173,201,8192,2.438821077701697
174,202,8192,0.6320987654320988
175,203,8192,2.5098039215686274
176,204,8192,1.1636363636363636
177,205,8192,1.0940170940170941
178,206,8192,0.8448844884488449
179,207,8192,1.1130434782608696
180,208,8192,1.5900621118012421
181,209,8192,1.4970760233918128
182,210,8192,2.5098039215686274
183,211,8192,1.0940170940170941
184,212,8192,2.4854368932038833
185,213,8192,2.4615384615384617
186,214,8192,2.5346534653465347
187,215,8192,2.3932223196026876
188,216,8192,2.4380952380952383
189,217,8192,2.5346534653465347
190,218,8192,0.920863309352518
191,219,8192,0.8504983388704319
192,220,8192,2.5098039215686274
193,221,8192,1.4545454545454546
194,222,8192,1.062240663900415
195,223,8192,2.4615384615384617
196,228,8192,1.1082251082251082
197,229,8192,1.3403141361256545
198,230,8192,0.7925696594427245
199,231,8192,2.4380952380952383
200,232,8192,1.0666666666666667
201,233,8192,2.4615384615384617
202,234,8192,1.7066666666666668
203,235,8192,2.3486238532110093
204,236,8192,2.510573092246399
205,237,8192,1.103448275862069
206,238,8192,2.4380952380952383
207,239,8192,0.9922480620155039
208,240,8192,2.462278328824767
209,241,8192,1.841726618705036
210,242,8192,2.437369830407617
211,243,8192,2.2857142857142856
212,244,8192,2.4615384615384617
213,245,8192,2.4854368932038833
214,246,8192,2.4615384615384617
215,247,8192,2.4615384615384617
216,248,8192,2.4615384615384617
217,249,8192,2.510573092246399
218,250,8192,1
219,251,8192,1.032258064516129
220,252,8192,2.4854368932038833
221,253,8192,1.532934131736527
222,254,8192,1.1689497716894977
223,255,8192,2.4380952380952383
224,260,8192,2.4380952380952383
225,261,8192,0.9045936395759717
226,262,8192,2.4150943396226414
227,263,8192,2.3063063063063063
228,264,8192,2.4854368932038833
229,265,8192,1.1531531531531531
230,266,8192,2.4615384615384617
231,267,8192,2.4854368932038833
232,268,8192,2.4150943396226414
233,269,8192,2.3703703703703702
234,270,8192,2.4854368932038833
235,271,8192,2.4380952380952383
236,272,8192,2.5098039215686274
237,273,8192,2.4615384615384617
238,274,8192,2.4150943396226414
239,275,8192,2.510573092246399
240,276,8192,2.4380952380952383
241,277,8192,2.4380952380952383
242,278,8192,2.5098039215686274
243,279,8192,2.4615384615384617
244,280,8192,2.4150943396226414
245,281,8192,1.2864321608040201
246,282,8192,2.4615384615384617
247,283,8192,2.3918248175182484
248,284,8192,2.4380952380952383
249,285,8192,1.292929292929293
250,286,8192,2.4854368932038833
251,287,8192,2.4854368932038833
252,292,8192,2.4615384615384617
253,293,8192,2.4854368932038833
254,294,8192,2.4615384615384617
255,295,8192,2.3703703703703702
256,296,8192,2.4615384615384617
257,297,8192,0.9588014981273408
258,298,8192,2.4380952380952383
259,299,8192,2.4380952380952383
260,300,8192,2.4380952380952383
261,301,8192,2.226086956521739
262,302,8192,2.392523364485981
263,303,8192,2.4615384615384617
264,304,8192,2.4150943396226414
265,305,8192,2.4150943396226414
266,306,8192,2.535437944908697
267,307,8192,2.4380952380952383
268,308,8192,2.4854368932038833
269,309,8192,2.4854368932038833
270,310,8192,2.4615384615384617
271,311,8192,2.392523364485981
272,312,8192,2.392523364485981
273,313,8192,2.4615384615384617
274,314,8192,2.438821077701697
275,315,8192,2.4854368932038833
276,316,8192,2.4854368932038833
277,317,8192,2.3703703703703702
278,318,8192,2.4615384615384617
279,319,8192,2.4615384615384617
280,324,8192,2.437369830407617
281,325,8192,1.2673267326732673
282,326,8192,2.510573092246399
283,327,8192,2.4615384615384617
284,328,8192,2.4380952380952383
285,329,8192,2.5098039215686274
286,330,8192,2.3703703703703702
287,331,8192,2.4615384615384617
288,332,8192,2.4150943396226414
289,333,8192,2.5090352220520673
290,334,8192,2.4380952380952383
291,335,8192,2.4615384615384617
292,336,8192,2.4615384615384617
293,337,8192,1.147982062780269
294,338,8192,2.5098039215686274
295,339,8192,1.2073691967575535
296,340,8192,2.4380952380952383
297,341,8192,2.3918248175182484
298,342,8192,2.4380952380952383
299,343,8192,2.4380952380952383
300,344,8192,2.5098039215686274
301,345,8192,2.4854368932038833
302,346,8192,2.4854368932038833
303,347,8192,1.080168776371308
304,348,8192,2.462278328824767
305,349,8192,1.0940170940170941
306,350,8192,2.4854368932038833
307,351,8192,2.4854368932038833
308,356,8192,2.4150943396226414
309,357,8192,1.7181208053691275
310,358,8192,2.392523364485981
311,359,8192,2.4615384615384617
312,360,8192,2.4854368932038833
313,361,8192,1.7902097902097902
314,362,8192,2.585858585858586
315,363,8192,2.4615384615384617
316,364,8192,2.4615384615384617
317,365,8192,1.0711297071129706
318,366,8192,2.4854368932038833
319,367,8192,2.3932223196026876
320,368,8192,2.4615384615384617
321,369,8192,2.4854368932038833
322,370,8192,2.4615384615384617
323,371,8192,2.4854368932038833
324,372,8192,2.4380952380952383
325,373,8192,2.4854368932038833
326,374,8192,2.56
327,375,8192,2.0813008130081303
328,376,8192,2.4150943396226414
329,377,8192,2.4150943396226414
330,378,8192,2.4615384615384617
331,379,8192,2.4380952380952383
332,380,8192,2.5098039215686274
333,381,8192,2.510573092246399
334,382,8192,2.3486238532110093
335,383,8192,2.4615384615384617
336,388,8192,1.2864321608040201
337,389,8192,2.3486238532110093
338,391,8192,2.4615384615384617
339,392,8192,2.4150943396226414
340,393,8192,2.5090352220520673
341,394,8192,2.4615384615384617
342,395,8192,2.4158065467413743
343,396,8192,2.4615384615384617
344,397,8192,1.1636363636363636
345,398,8192,2.4854368932038833
346,399,8192,2.4615384615384617
347,400,8192,2.0317460317460316
348,401,8192,0.9411764705882353
349,402,8192,2.4615384615384617
350,403,8192,2.4854368932038833
351,404,8192,1.0756302521008403
352,405,8192,1.062240663900415
353,406,8192,2.4150943396226414
354,407,8192,1.0536334405144694
355,408,8192,2.3703703703703702
356,409,8192,1.1228070175438596
357,410,8192,2.4380952380952383
358,411,8192,2.5098039215686274
359,412,8192,2.4854368932038833
360,413,8192,2.5098039215686274
361,414,8192,2.4380952380952383
362,415,8192,1.3687552213868004
363,420,8192,2.392523364485981
364,421,8192,1.0847457627118644
365,422,8192,2.5098039215686274
366,423,8192,2.3703703703703702
367,424,8192,2.4150943396226414
368,425,8192,2.4615384615384617
369,426,8192,2.4380952380952383
370,427,8192,1.1689497716894977
371,428,8192,2.4380952380952383
372,429,8192,1.641025641025641
373,430,8192,2.245614035087719
374,431,8192,2.4615384615384617
375,432,8192,2.4854368932038833
376,433,8192,2.5098039215686274
377,434,8192,2.4380952380952383
378,435,8192,2.4854368932038833
379,436,8192,2.4854368932038833
380,437,8192,1.0491803278688525
381,438,8192,2.4615384615384617
382,439,8192,2.5098039215686274
383,440,8192,2.4861911987860394
384,441,8192,2.4615384615384617
385,442,8192,2.3486238532110093
386,443,8192,2.4615384615384617
387,444,8192,2.4380952380952383
388,445,8192,1.1130434782608696
389,446,8192,2.4615384615384617
390,447,8192,2.5098039215686274
391,452,8192,2.4615384615384617
392,453,8192,1.1797235023041475
393,454,8192,2.4615384615384617
394,455,8192,2.5346534653465347
395,456,8192,2.4854368932038833
396,457,8192,2.392523364485981
397,458,8192,2.4615384615384617
398,459,8192,2.4615384615384617
399,460,8192,2.4615384615384617
400,461,8192,1.0158730158730158
401,462,8192,2.4143825523135867
402,463,8192,1.0534979423868314
403,464,8192,2.4615384615384617
404,465,8192,2.4615384615384617
405,466,8192,2.4615384615384617
406,467,8192,2.4150943396226414
407,468,8192,2.245614035087719
408,469,8192,2.245614035087719
409,470,8192,2.5098039215686274
410,471,8192,2.5098039215686274
411,472,8192,2.4380952380952383
412,473,8192,2.392523364485981
413,474,8192,2.4150943396226414
414,475,8192,2.371056439942113
415,476,8192,2.4861911987860394
416,477,8192,1.2248803827751196
417,478,8192,2.4854368932038833
418,479,8192,2.4615384615384617
419,484,8192,2.5098039215686274
420,485,8192,0.764179104477612
421,486,8192,2.4854368932038833
422,487,8192,2.3486238532110093
423,488,8192,2.4615384615384617
424,489,8192,1.0079980312538452
425,490,8192,2.4615384615384617
426,491,8192,2.5098039215686274
427,492,8192,2.4615384615384617
428,493,8192,2.3703703703703702
429,494,8192,2.3063063063063063
430,495,8192,2.4607990387503755
431,496,8192,2.4380952380952383
432,497,8192,1.7655172413793103
433,498,8192,1.0491803278688525
434,499,8192,1.1377777777777778
435,501,8192,2.4615384615384617
436,502,8192,2.438821077701697
437,503,8192,2.4615384615384617
438,504,8192,2.4150943396226414
439,505,8192,2.4854368932038833
440,506,8192,2.4150943396226414
441,507,8192,2.4380952380952383
442,508,8192,2.4861911987860394
443,509,8192,2.4380952380952383
444,510,8192,2.4854368932038833
445,511,8192,2.5346534653465347
446,516,8192,1.3264248704663213
447,517,8192,0.9884169884169884
448,519,8192,2.4150943396226414
449,522,8192,1.1797235023041475
450,523,8192,2.1512605042016806
451,524,8192,2.4854368932038833
452,525,8192,2.206896551724138
453,530,8192,2.4615384615384617
454,531,8192,1.2190476190476192
455,532,8192,2.4380952380952383
456,533,8192,2.4854368932038833
457,535,8192,2.4380952380952383
458,536,8192,2.245614035087719
459,537,8192,2.4854368932038833
460,538,8192,2.4854368932038833
461,539,8192,1.4065934065934067
462,540,8192,2.4380952380952383
463,541,8192,2.4854368932038833
464,542,8192,2.437369830407617
465,543,8192,1.1327433628318584
466,544,8192,2.4615384615384617
467,545,8192,2.3486238532110093
468,546,8192,0.9309090909090909
469,547,8192,1.1531531531531531
470,548,8192,2.4615384615384617
471,549,8192,1.1327433628318584
472,550,8192,2.4854368932038833
473,551,8192,1.0895065833222504
474,552,8192,0.7111111111111111
475,553,8192,2.4150943396226414
476,554,8192,2.169491525423729
477,555,8192,2.392523364485981
478,556,8192,2.4380952380952383
479,557,8192,1.1798934178309088
480,562,8192,1.080168776371308
481,563,8192,1.024
482,564,8192,2.4615384615384617
483,565,8192,2.4854368932038833
484,566,8192,1.1851851851851851
485,567,8192,2.4607990387503755
486,568,8192,1.4222222222222223
487,569,8192,2.4615384615384617
488,570,8192,1.2132701421800949
489,571,8192,2.3069557871022246
490,572,8192,2.4380952380952383
491,573,8192,2.4854368932038833
492,574,8192,2.169491525423729
493,575,8192,2.4158065467413743
494,576,8192,1.8028169014084507
495,577,8192,2.4615384615384617
496,578,8192,2.4854368932038833
497,579,8192,1.0534979423868314
498,580,8192,2.4615384615384617
499,581,8192,2.098360655737705
500,582,8192,2.5346534653465347
501,583,8192,2.4150943396226414
502,584,8192,2.4380952380952383
503,585,8192,2.4615384615384617
504,586,8192,1.0578512396694215
505,587,8192,1.4970760233918128
506,588,8192,2.4380952380952383
507,589,8192,2.4854368932038833
508,594,8192,1.6305732484076434
509,595,8192,2.392523364485981
510,596,8192,2.4158065467413743
511,597,8192,0.9624060150375939
512,598,8192,1.2018779342723005
513,599,8192,2.5346534653465347
514,600,8192,2.4380952380952383
515,601,8192,2.4150943396226414
516,602,8192,2.3703703703703702
517,603,8192,2.5098039215686274
518,604,8192,2.5098039215686274
519,605,8192,2.265486725663717
520,606,8192,0.9343065693430657
521,607,8192,0.7950310559006211
522,608,8192,1.695364238410596
523,609,8192,2.4615384615384617
524,610,8192,1.0987124463519313
525,611,8192,1.5609756097560976
526,612,8192,2.4380952380952383
527,613,8192,2.4615384615384617
528,614,8192,2.4150943396226414
529,615,8192,1.0711297071129706
530,616,8192,2.4380952380952383
531,617,8192,1.0279834358137785
532,618,8192,2.4380952380952383
533,619,8192,2.4380952380952383
534,620,8192,1.3763440860215055
535,621,8192,2.4854368932038833
536,626,8192,2.327272727272727
537,627,8192,2.4615384615384617
538,628,8192,2.5098039215686274
539,629,8192,2.4854368932038833
540,630,8192,2.5098039215686274
541,631,8192,2.3703703703703702
542,632,8192,1.2673267326732673
543,633,8192,2.206896551724138
544,634,8192,2.4615384615384617
545,635,8192,0.973384030418251
546,636,8192,1.1082251082251082
547,637,8192,1.3061224489795917
548,638,8192,1.2369017061754493
549,639,8192,1.3473684210526315
550,640,8192,1.0711297071129706
551,641,8192,1.0534979423868314
552,642,8192,2.5346534653465347
553,643,8192,0.9411764705882353
554,644,8192,1.4222222222222223
555,645,8192,2.4854368932038833
556,646,8192,2.1512605042016806
557,647,8192,2.5098039215686274
558,648,8192,1.2020542920029347
559,649,8192,2.4854368932038833
560,650,8192,2.4615384615384617
561,651,8192,2.533869471079493
562,652,8192,0.9447583900357513
563,653,8192,1.0940170940170941
564,658,8192,2.3486238532110093
565,659,8192,2.4158065467413743
566,660,8192,2.4615384615384617
567,661,8192,2.4615384615384617
568,662,8192,1.28
569,663,8192,1.3544973544973544
570,664,8192,1.10359692846558
571,665,8192,0.920863309352518
572,666,8192,0.9696969696969697
573,667,8192,1.1082251082251082
574,668,8192,1.1533155004927496
575,669,8192,1.4883720930232558
576,670,8192,1.003921568627451
577,671,8192,1.0666666666666667
578,672,8192,2.4380952380952383
579,673,8192,2.4150943396226414
580,674,8192,1.2132701421800949
581,675,8192,2.4854368932038833
582,676,8192,0.8178913738019169
583,677,8192,1.1636363636363636
584,678,8192,2.4615384615384617
585,679,8192,2.5090352220520673
586,680,8192,2.4615384615384617
587,681,8192,2.4380952380952383
588,682,8192,2.3703703703703702
589,683,8192,0.9660377358490566
590,684,8192,2.5346534653465347
591,685,8192,1.1962616822429906
592,690,8192,1.0893617021276596
593,691,8192,1.0199203187250996
594,692,8192,2.4615384615384617
595,693,8192,2.4607990387503755
596,694,8192,2.4380952380952383
597,695,8192,1.1798934178309088
598,696,8192,2.4854368932038833
599,697,8192,2.392523364485981
600,698,8192,2.4150943396226414
601,699,8192,2.188618755009351
602,700,8192,2.3703703703703702
603,701,8192,2.585858585858586
604,702,8192,2.4854368932038833
605,703,8192,1.248780487804878
606,704,8192,2.4615384615384617
607,706,8192,2.048
608,707,8192,2.392523364485981
609,708,8192,2.4615384615384617
610,709,8192,2.4854368932038833
611,710,8192,1.1636363636363636
612,711,8192,2.4615384615384617
613,712,8192,2.5098039215686274
614,713,8192,2.4380952380952383
615,714,8192,1.1377777777777778
616,715,8192,2.392523364485981
617,716,8192,2.206896551724138
618,717,8192,2.4854368932038833
619,722,8192,2.4854368932038833
620,723,8192,2.4854368932038833
621,724,8192,2.4607990387503755
622,725,8192,2.4854368932038833
623,726,8192,2.4615384615384617
624,727,8192,2.1333333333333333
625,728,8192,2.392523364485981
626,729,8192,2.170066225165563
627,730,8192,2.115702479338843
628,731,8192,2.3703703703703702
629,732,8192,2.3486238532110093
630,733,8192,2.4854368932038833
631,734,8192,2.5346534653465347
632,735,8192,2.4150943396226414
633,736,8192,2.3279340721795965
634,737,8192,2.206896551724138
