idx,og Index,data (B),bandwidth (GB/s)
0,2,8192,2.4380952380952383
1,3,8192,2.437369830407617
2,8,8192,0.8858131487889274
3,9,8192,2.4615384615384617
4,10,8192,2.392523364485981
5,11,8192,1.0847457627118644
6,12,8192,2.4380952380952383
7,13,8192,1.1377777777777778
8,14,8192,2.4380952380952383
9,15,8192,2.4150943396226414
10,16,8192,1.299492385786802
11,17,8192,2.4150943396226414
12,18,8192,2.4150943396226414
13,19,8192,2.4854368932038833
14,20,8192,2.4615384615384617
15,21,8192,2.4380952380952383
16,22,8192,1.1531531531531531
17,23,8192,2.3063063063063063
18,24,8192,2.4854368932038833
19,25,8192,2.326611758023289
20,26,8192,1.9692307692307693
21,27,8192,0.8152866242038217
22,28,8192,2.4615384615384617
23,29,8192,1.152990851513019
24,30,8192,2.3932223196026876
25,31,8192,2.4380952380952383
26,32,8192,2.392523364485981
27,33,8192,2.392523364485981
28,34,8192,1.1228070175438596
29,35,8192,1.062240663900415
30,40,8192,2.4380952380952383
31,41,8192,1.7777777777777777
32,42,8192,2.4854368932038833
33,43,8192,0.9111333555778001
34,44,8192,0.8951048951048951
35,45,8192,2.4150943396226414
36,46,8192,0.973384030418251
37,47,8192,1.2427184466019416
38,48,8192,2.3703703703703702
39,49,8192,1.0666666666666667
40,50,8192,1.1743119266055047
41,51,8192,2.4150943396226414
42,52,8192,2.3703703703703702
43,53,8192,2.392523364485981
44,54,8192,1.0040446133104548
45,55,8192,1.0159990078134689
46,56,8192,0.9111333555778001
47,57,8192,2.392523364485981
48,58,8192,2.4854368932038833
49,59,8192,2.392523364485981
50,60,8192,2.048
51,61,8192,2.3703703703703702
52,62,8192,2.4854368932038833
53,63,8192,1.0987124463519313
54,64,8192,1.3264248704663213
55,65,8192,2.4615384615384617
56,66,8192,1.2610837438423645
57,67,8192,2.4615384615384617
58,72,8192,2.4607990387503755
59,73,8192,2.4380952380952383
60,74,8192,2.4150943396226414
61,75,8192,1.255094223992646
62,76,8192,2.4380952380952383
63,77,8192,1.127908577722704
64,78,8192,2.4854368932038833
65,79,8192,0.7619756301739373
66,80,8192,0.7950310559006211
67,81,8192,1.2736318407960199
68,82,8192,2.392523364485981
69,83,8192,2.3063063063063063
70,84,8192,2.4615384615384617
71,85,8192,1.080168776371308
72,86,8192,0.9411764705882353
73,87,8192,1.0893617021276596
74,88,8192,1.514792899408284
75,89,8192,2.4615384615384617
76,90,8192,2.3932223196026876
77,91,8192,1.103448275862069
78,92,8192,2.5098039215686274
79,93,8192,2.5090352220520673
80,94,8192,2.4380952380952383
81,95,8192,1.080168776371308
82,96,8192,2.4380952380952383
83,97,8192,1.0578512396694215
84,98,8192,1.1689497716894977
85,99,8192,2.4380952380952383
86,104,8192,2.392523364485981
87,105,8192,1.1179039301310043
88,106,8192,1.0578512396694215
89,107,8192,1.049314717561163
90,108,8192,2.392523364485981
91,109,8192,2.5346534653465347
92,110,8192,0.8178097234701008
93,111,8192,2.4380952380952383
94,112,8192,2.4150943396226414
95,113,8192,2.392523364485981
96,114,8192,2.5346534653465347
97,115,8192,2.4380952380952383
98,116,8192,2.5098039215686274
99,117,8192,2.3703703703703702
100,118,8192,2.4158065467413743
101,119,8192,2.5098039215686274
102,120,8192,2.3703703703703702
103,121,8192,2.4150943396226414
104,122,8192,2.4150943396226414
105,123,8192,2.4854368932038833
106,124,8192,2.4615384615384617
107,125,8192,2.462278328824767
108,126,8192,2.462278328824767
109,127,8192,1.1531531531531531
110,128,8192,2.4380952380952383
111,129,8192,1.103448275862069
112,130,8192,2.392523364485981
113,131,8192,2.4615384615384617
114,136,8192,1.1327433628318584
115,137,8192,1.0803112224713174
116,138,8192,2.4380952380952383
117,139,8192,1.0578512396694215
118,140,8192,1.4797687861271676
119,141,8192,2.5098039215686274
120,142,8192,2.535437944908697
121,143,8192,0.9660377358490566
122,144,8192,2.4150943396226414
123,145,8192,2.4150943396226414
124,146,8192,2.4380952380952383
125,147,8192,2.3486238532110093
126,148,8192,0.8737201365187713
127,149,8192,1.147982062780269
128,150,8192,2.4854368932038833
129,151,8192,1.1906976744186046
130,152,8192,2.5346534653465347
131,153,8192,2.1333333333333333
132,154,8192,2.4380952380952383
133,155,8192,1.0578512396694215
134,156,8192,1.841726618705036
135,157,8192,2.392523364485981
136,158,8192,2.3703703703703702
137,159,8192,1.0895065833222504
138,160,8192,2.4380952380952383
139,161,8192,1.0893617021276596
140,162,8192,2.4854368932038833
141,163,8192,2.4380952380952383
142,168,8192,2.4615384615384617
143,169,8192,2.4854368932038833
144,170,8192,2.5098039215686274
145,171,8192,2.4380952380952383
146,172,8192,2.4615384615384617
147,173,8192,2.392523364485981
148,174,8192,2.226086956521739
149,175,8192,2.4854368932038833
150,176,8192,1.1797235023041475
151,177,8192,1.1130434782608696
152,178,8192,2.4854368932038833
153,179,8192,1.248780487804878
154,180,8192,1.3475900641552887
155,181,8192,1.4545454545454546
156,182,8192,1.248780487804878
157,183,8192,1.9104477611940298
158,184,8192,1.4143646408839778
159,185,8192,2.4854368932038833
160,186,8192,1.1179039301310043
161,187,8192,1.299492385786802
162,188,8192,2.3703703703703702
163,189,8192,1.1082251082251082
164,190,8192,2.4615384615384617
165,191,8192,0.847682119205298
166,192,8192,2.3703703703703702
167,193,8192,1.1531531531531531
168,194,8192,2.4615384615384617
169,195,8192,1.2190476190476192
170,200,8192,0.8532444537027393
171,201,8192,2.4150943396226414
172,202,8192,1.0448979591836736
173,203,8192,1.5705521472392638
174,204,8192,1.049314717561163
175,205,8192,2.4854368932038833
176,206,8192,1.1962616822429906
177,207,8192,1.1428571428571428
178,208,8192,2.115702479338843
179,209,8192,2.4615384615384617
180,210,8192,2.4615384615384617
181,211,8192,1.984976980857766
182,212,8192,2.392523364485981
183,213,8192,2.4854368932038833
184,214,8192,2.4854368932038833
185,215,8192,2.392523364485981
186,216,8192,2.064516129032258
187,217,8192,2.4380952380952383
188,218,8192,2.4615384615384617
189,219,8192,2.392523364485981
190,220,8192,2.4150943396226414
191,221,8192,2.4615384615384617
192,222,8192,1.1636363636363636
193,223,8192,0.924187725631769
194,224,8192,2.4615384615384617
195,225,8192,0.9588014981273408
196,226,8192,1.0406504065040652
197,227,8192,2.5098039215686274
198,232,8192,1.1428571428571428
199,233,8192,0.9552238805970149
200,234,8192,2.3486238532110093
201,235,8192,1.158371040723982
202,236,8192,1.0756302521008403
203,237,8192,1.2190476190476192
204,238,8192,2.56
205,239,8192,1.1228070175438596
206,240,8192,0.7805621724630777
207,241,8192,1.695364238410596
208,242,8192,1.147982062780269
209,243,8192,2.4854368932038833
210,244,8192,2.392523364485981
211,245,8192,1.2307692307692308
212,246,8192,2.5090352220520673
213,247,8192,0.8050314465408805
214,248,8192,1.1689497716894977
215,249,8192,1.2427184466019416
216,250,8192,2.437369830407617
217,251,8192,2.4380952380952383
218,252,8192,2.4380952380952383
219,253,8192,1.4628571428571429
220,254,8192,2.4854368932038833
221,255,8192,1.641025641025641
222,256,8192,1.6516129032258065
223,257,8192,2.4615384615384617
224,258,8192,2.3279340721795965
225,259,8192,2.5098039215686274
226,264,8192,2.5346534653465347
227,265,8192,2.4854368932038833
228,266,8192,2.392523364485981
229,267,8192,2.2857142857142856
230,268,8192,2.4854368932038833
231,269,8192,2.4158065467413743
232,270,8192,2.4854368932038833
233,271,8192,0.9922480620155039
234,272,8192,2.4380952380952383
235,273,8192,1.0406504065040652
236,274,8192,2.438821077701697
237,275,8192,2.4380952380952383
238,276,8192,2.5098039215686274
239,277,8192,1.8285714285714285
240,278,8192,2.098360655737705
241,279,8192,2.4380952380952383
242,280,8192,2.4607990387503755
243,281,8192,2.5098039215686274
244,282,8192,2.5346534653465347
245,283,8192,2.4380952380952383
246,284,8192,2.4854368932038833
247,285,8192,2.4380952380952383
248,286,8192,2.4380952380952383
249,287,8192,1
250,288,8192,2.4607990387503755
251,289,8192,2.4615384615384617
252,290,8192,1.2020542920029347
253,291,8192,1.0847457627118644
254,296,8192,1.080168776371308
255,297,8192,2.4607990387503755
256,298,8192,1.1962616822429906
257,299,8192,1.9844961240310077
258,300,8192,2.169491525423729
259,301,8192,1.0666666666666667
260,302,8192,2.4854368932038833
261,303,8192,2.4150943396226414
262,304,8192,2.438821077701697
263,305,8192,2.4380952380952383
264,306,8192,2.265486725663717
265,307,8192,2.4615384615384617
266,308,8192,2.3703703703703702
267,309,8192,2.4150943396226414
268,310,8192,2.4150943396226414
269,311,8192,1.2075471698113207
270,312,8192,2.3486238532110093
271,313,8192,2.392523364485981
272,314,8192,2.4854368932038833
273,315,8192,1.147982062780269
274,316,8192,2.4615384615384617
275,317,8192,2.5098039215686274
276,318,8192,2.4854368932038833
277,319,8192,0.7852760736196319
278,320,8192,2.4615384615384617
279,321,8192,2.4158065467413743
280,322,8192,2.4615384615384617
281,323,8192,2.3703703703703702
282,328,8192,2.4607990387503755
283,329,8192,2.4150943396226414
284,330,8192,2.4615384615384617
285,331,8192,2.4615384615384617
286,332,8192,2.4615384615384617
287,333,8192,2.4150943396226414
288,334,8192,0.9110320284697508
289,335,8192,2.4380952380952383
290,336,8192,2.4854368932038833
291,337,8192,2.4615384615384617
292,338,8192,2.327272727272727
293,339,8192,2.1512605042016806
294,340,8192,2.3703703703703702
295,341,8192,2.4854368932038833
296,342,8192,2.116249031258073
297,343,8192,2.392523364485981
298,344,8192,2.4150943396226414
299,345,8192,2.4380952380952383
300,346,8192,2.4615384615384617
301,347,8192,1.0803112224713174
302,348,8192,2.4150943396226414
303,349,8192,2.510573092246399
304,350,8192,2.4380952380952383
305,351,8192,1.1131947275445033
306,352,8192,2.4615384615384617
307,353,8192,2.4615384615384617
308,354,8192,2.4854368932038833
309,355,8192,2.4854368932038833
310,360,8192,2.4854368932038833
311,361,8192,2.5098039215686274
312,362,8192,2.4615384615384617
313,363,8192,2.4150943396226414
314,364,8192,2.5098039215686274
315,365,8192,2.5098039215686274
316,366,8192,2.4854368932038833
317,367,8192,2.4615384615384617
318,368,8192,2.4854368932038833
319,369,8192,2.5098039215686274
320,370,8192,2.4615384615384617
321,371,8192,2.4615384615384617
322,372,8192,2.4607990387503755
323,373,8192,2.4854368932038833
324,374,8192,2.4615384615384617
325,375,8192,2.3703703703703702
326,376,8192,2.392523364485981
327,377,8192,2.4854368932038833
328,378,8192,2.4150943396226414
329,379,8192,2.5098039215686274
330,380,8192,2.5098039215686274
331,381,8192,2.4854368932038833
332,382,8192,2.4380952380952383
333,383,8192,1.6
334,384,8192,2.392523364485981
335,385,8192,2.5098039215686274
336,386,8192,2.4615384615384617
337,387,8192,1.1743119266055047
338,392,8192,2.4380952380952383
339,393,8192,2.4607990387503755
340,394,8192,2.4854368932038833
341,395,8192,0.7071823204419889
342,396,8192,2.3703703703703702
343,397,8192,2.4615384615384617
344,398,8192,2.4854368932038833
345,399,8192,2.4380952380952383
346,400,8192,2.4150943396226414
347,401,8192,2.4615384615384617
348,402,8192,2.4158065467413743
349,403,8192,2.4615384615384617
350,404,8192,2.510573092246399
351,405,8192,2.327272727272727
352,406,8192,2.4615384615384617
353,407,8192,2.462278328824767
354,408,8192,2.4854368932038833
355,409,8192,1.158371040723982
356,410,8192,2.4380952380952383
357,411,8192,0.8533333333333334
358,412,8192,2.4854368932038833
359,413,8192,2.245614035087719
360,414,8192,1.4797687861271676
361,415,8192,2.5098039215686274
362,417,8192,2.265486725663717
363,418,8192,2.4380952380952383
364,419,8192,2.5098039215686274
365,424,8192,2.3932223196026876
366,425,8192,2.4854368932038833
367,426,8192,2.392523364485981
368,427,8192,1.3617021276595744
369,428,8192,2.4854368932038833
370,429,8192,2.4607990387503755
371,430,8192,2.4615384615384617
372,431,8192,1.1130434782608696
373,432,8192,2.4150943396226414
374,433,8192,2.4607990387503755
375,434,8192,2.4615384615384617
376,435,8192,1.1636363636363636
377,437,8192,2.3703703703703702
378,438,8192,2.4854368932038833
379,439,8192,2.4615384615384617
380,440,8192,2.4380952380952383
381,441,8192,1.1130434782608696
382,442,8192,2.4380952380952383
383,443,8192,2.4615384615384617
384,444,8192,2.4150943396226414
385,445,8192,0.764179104477612
386,446,8192,2.5346534653465347
387,447,8192,0.9516728624535316
388,448,8192,1.122960932145305
389,449,8192,0.8562767847810181
390,450,8192,2.5346534653465347
391,451,8192,2.4380952380952383
392,456,8192,2.4615384615384617
393,457,8192,2.4380952380952383
394,458,8192,1.158371040723982
395,459,8192,1.2248803827751196
396,460,8192,2.4380952380952383
397,461,8192,2.4854368932038833
398,462,8192,2.4854368932038833
399,463,8192,0.9411764705882353
400,464,8192,2.510573092246399
401,465,8192,2.4150943396226414
402,466,8192,2.4150943396226414
403,467,8192,1.024
404,468,8192,2.5346534653465347
405,469,8192,2.462278328824767
406,470,8192,2.4615384615384617
407,471,8192,2.327272727272727
408,472,8192,1.080168776371308
409,473,8192,2.4854368932038833
410,474,8192,2.4380952380952383
411,475,8192,0.8797250859106529
412,476,8192,1.1082251082251082
413,477,8192,0.8889853499728704
414,478,8192,2.4380952380952383
415,479,8192,1.1797235023041475
416,480,8192,2.4150943396226414
417,481,8192,2.4615384615384617
418,482,8192,2.4380952380952383
419,483,8192,2.392523364485981
420,488,8192,2.4615384615384617
421,489,8192,2.4854368932038833
422,491,8192,0.9624060150375939
423,492,8192,2.5346534653465347
424,493,8192,2.4380952380952383
425,494,8192,2.5098039215686274
426,495,8192,1.0159990078134689
427,496,8192,2.4615384615384617
428,497,8192,2.5098039215686274
429,1450,8192,2.4854368932038833
430,1451,8192,2.245614035087719
431,1452,8192,2.4150943396226414
432,1453,8192,2.4854368932038833
433,1454,8192,1.1689497716894977
434,1455,8192,1.158371040723982
435,1456,8192,1.1130434782608696
436,1457,8192,1.1130434782608696
437,1458,8192,1.9104477611940298
438,1459,8192,2.462278328824767
439,1460,8192,1.620253164556962
440,1461,8192,0.8590604026845637
441,1462,8192,2.265486725663717
442,1463,8192,2.533869471079493
443,1464,8192,1.0666666666666667
444,1465,8192,1.0756302521008403
445,1466,8192,2.4380952380952383
446,1467,8192,2.245614035087719
447,1468,8192,2.4150943396226414
448,1469,8192,2.4854368932038833
449,1470,8192,1.0534979423868314
450,1471,8192,0.927536231884058
451,1472,8192,1.062240663900415
452,1473,8192,2.4615384615384617
453,1474,8192,1.1327433628318584
454,1475,8192,1.1130434782608696
455,1476,8192,1.5150730534492325
456,1477,8192,0.8366013071895425
457,1482,8192,1.0364372469635628
458,1483,8192,0.98096036402826
459,1484,8192,1.0281124497991967
460,1485,8192,1.2190476190476192
461,1486,8192,2.3703703703703702
462,1487,8192,2.5098039215686274
463,1488,8192,1.3617021276595744
464,1489,8192,1.2610837438423645
465,1490,8192,2.5098039215686274
466,1491,8192,2.5346534653465347
467,1492,8192,0.927536231884058
468,1493,8192,1.032258064516129
469,1494,8192,1.9692307692307693
470,1495,8192,0.7091412742382271
471,1496,8192,2.4380952380952383
472,1497,8192,2.392523364485981
473,1498,8192,0.9808429118773946
474,1499,8192,0.920863309352518
475,1500,8192,0.9516728624535316
476,1501,8192,1.003921568627451
477,1502,8192,2.3918248175182484
478,1503,8192,2.4615384615384617
479,1504,8192,2.4854368932038833
480,1505,8192,2.4615384615384617
481,1506,8192,2.5346534653465347
482,1507,8192,2.392523364485981
483,1508,8192,1.299492385786802
484,1509,8192,1.292929292929293
485,1514,8192,2.4854368932038833
486,1515,8192,1.3617021276595744
487,1516,8192,0.9696969696969697
488,1517,8192,1.2866342076331083
489,1518,8192,1.8152005317970308
490,1519,8192,2.5346534653465347
491,1520,8192,2.4150943396226414
492,1521,8192,2.4615384615384617
493,1522,8192,2.4615384615384617
494,1523,8192,2.4854368932038833
495,1524,8192,1.1377777777777778
496,1525,8192,1.062240663900415
497,1526,8192,0.9922480620155039
498,1527,8192,1.0078740157480315
499,1528,8192,2.4854368932038833
500,1529,8192,2.4854368932038833
501,1530,8192,1.1083750507373833
502,1531,8192,1.1277533039647578
503,1532,8192,2.0317460317460316
504,1533,8192,2.438821077701697
505,1534,8192,2.4615384615384617
506,1535,8192,2.245614035087719
507,1536,8192,1.147982062780269
508,1537,8192,1.3061224489795917
509,1538,8192,1.1689497716894977
510,1539,8192,1.0491803278688525
511,1540,8192,1.8156028368794326
512,1541,8192,0.8858131487889274
513,1546,8192,2.392523364485981
514,1547,8192,2.4143825523135867
515,1548,8192,1.0078740157480315
516,1549,8192,1.8958574404073132
517,1550,8192,1.0711297071129706
518,1551,8192,1.127908577722704
519,1552,8192,1.1428571428571428
520,1553,8192,1.0578512396694215
521,1554,8192,2.3932223196026876
522,1555,8192,2.4615384615384617
523,1556,8192,0.9014084507042254
524,1557,8192,1.1906976744186046
525,1558,8192,1.695364238410596
526,1559,8192,1.3619285120532003
527,1560,8192,2.4380952380952383
528,1561,8192,0.8827586206896552
529,1562,8192,1.391304347826087
530,1563,8192,1.0407826197433616
531,1564,8192,1.0491803278688525
532,1565,8192,1.3544973544973544
533,1566,8192,1.7066666666666668
534,1567,8192,1.3989071038251366
535,1568,8192,2.4150943396226414
536,1569,8192,2.4854368932038833
537,1570,8192,1.1228070175438596
538,1571,8192,1.2549019607843137
539,1572,8192,1.28
540,1573,8192,0.7151462243561764
541,1578,8192,1.5421686746987953
542,1579,8192,2.4150943396226414
543,1580,8192,1.0666666666666667
544,1581,8192,2.3703703703703702
545,1582,8192,1.446072374227714
546,1583,8192,0.9446494464944649
547,1584,8192,1.4463276836158192
548,1585,8192,2.5098039215686274
549,1586,8192,1.9687575102138908
550,1587,8192,2.3703703703703702
551,1588,8192,0.8858131487889274
552,1589,8192,1.045031253986478
553,1590,8192,1.0281124497991967
554,1591,8192,1.1634710978554184
555,1592,8192,1.5515151515151515
556,1593,8192,2.5098039215686274
557,1594,8192,2.4854368932038833
558,1595,8192,2.3703703703703702
559,1596,8192,2.392523364485981
560,1597,8192,2.4615384615384617
561,1598,8192,0.9922480620155039
562,1599,8192,1.1962616822429906
563,1600,8192,1.4883720930232558
564,1601,8192,1.2549019607843137
565,1602,8192,0.9014084507042254
566,1603,8192,0.8707482993197279
567,1604,8192,1.2020542920029347
568,1605,8192,1.5802469135802468
569,1610,8192,1.8823529411764706
570,1611,8192,0.7757575757575758
571,1612,8192,1.0491803278688525
572,1613,8192,1.0534979423868314
573,1614,8192,0.9770992366412213
574,1615,8192,0.9516728624535316
575,1616,8192,2.4854368932038833
576,1617,8192,2.5098039215686274
577,1618,8192,1.5238095238095237
578,1619,8192,2.4380952380952383
579,1620,8192,1.1428571428571428
580,1621,8192,2.4615384615384617
581,1622,8192,2.5346534653465347
582,1623,8192,2.4615384615384617
583,1624,8192,1.0893617021276596
584,1625,8192,1.0118577075098814
585,1626,8192,1.0578512396694215
586,1627,8192,1.0406504065040652
587,1628,8192,2.4615384615384617
588,1629,8192,2.4607990387503755
589,1630,8192,0.9696969696969697
590,1631,8192,1.103448275862069
591,1632,8192,1.3264248704663213
592,1633,8192,1.430417321459752
593,1634,8192,2.4615384615384617
594,1635,8192,2.5098039215686274
595,1636,8192,2.4380952380952383
596,1637,8192,2.5346534653465347
597,1642,8192,2.4380952380952383
598,1643,8192,2.3703703703703702
599,1644,8192,1.3544973544973544
600,1645,8192,1.0158730158730158
601,1646,8192,1.0893617021276596
602,1647,8192,1.0940170940170941
603,1648,8192,2.585858585858586
604,1649,8192,0.7551622418879056
605,1650,8192,2.327272727272727
606,1651,8192,2.4615384615384617
607,1652,8192,1.6
608,1653,8192,1.1327433628318584
609,1654,8192,2.4615384615384617
610,1655,8192,2.3703703703703702
611,1656,8192,2.4615384615384617
612,1657,8192,2.4615384615384617
613,1658,8192,2.3703703703703702
614,1659,8192,1.103448275862069
615,1660,8192,2.4854368932038833
616,1661,8192,1.1179039301310043
617,1662,8192,2.4615384615384617
618,1663,8192,2.4854368932038833
619,1664,8192,1.2367149758454106
620,1665,8192,1.1130434782608696
621,1666,8192,2.392523364485981
622,1667,8192,2.4380952380952383
623,1668,8192,2.4380952380952383
624,1669,8192,1.0940170940170941
625,1674,8192,1.1636363636363636
626,1675,8192,2.3703703703703702
627,1676,8192,2.4380952380952383
628,1677,8192,2.3918248175182484
629,1678,8192,1.641354437988379
