idx,og Index,data (B),bandwidth (GB/s)
0,2,33562624,11.670250108400358
1,5,33562624,12.302838779064375
2,6,33562624,11.890141696309987
3,8,33562624,11.971020695834296
4,10,33562624,11.996488549181757
5,12,33562624,12.078004276632328
6,14,33562624,11.986484473966255
7,16,33562624,12.090530677322985
8,18,33562624,12.050108158857986
9,20,33562624,12.117070050034966
10,22,33562624,12.056618569692477
11,24,33562624,12.108117468417998
12,26,33562624,12.095550259460984
13,28,33562624,12.11497497420896
14,30,33562624,12.103227118629398
15,32,33562624,12.158225704377525
16,34,33562624,12.17559050262103
17,36,33562624,12.131365622556793
18,38,33562624,12.137266233047669
19,40,33562624,12.059529751041921
20,42,33562624,12.140633687190427
21,44,33562624,12.136278742308294
22,46,33562624,12.179266528723186
23,48,33562624,12.156393759577934
24,50,33562624,12.1609085619002
25,52,33562624,12.052877686861558
26,54,33562624,12.178135207371332
27,56,33562624,12.066744444823948
28,58,33562624,12.158366646078273
29,60,33562624,12.042770740220858
30,62,33562624,12.12884042389802
31,66,33570816,12.038941100993036
32,68,33570816,12.017702859585308
33,70,33570816,12.021283277501553
34,72,33570816,11.99722537403309
35,74,33570816,12.011373495976091
36,76,33570816,12.088186524430181
37,78,33570816,12.055265423056992
38,80,33570816,12.154575505342162
39,82,33570816,12.072745423742345
40,84,33570816,12.122268358182115
41,86,33570816,12.106600407149825
42,88,33570816,12.124374203194805
43,90,33570816,12.080530594810428
44,92,33570816,12.126191684531625
45,94,33570816,12.109814627304894
46,96,33570816,12.185635310985681
47,98,33570816,12.09808399405093
48,100,33570816,12.196827376034634
49,102,33570816,12.156829060379986
50,104,33570816,12.084287748082742
51,106,33570816,12.089579554306173
52,108,33570816,12.169375316959753
53,110,33570816,12.188179169503064
54,112,33570816,12.184781697356543
55,114,33570816,12.130398067566517
56,116,33570816,12.092649706390253
57,118,33570816,12.11456921068842
58,120,33570816,12.08136531584427
59,122,33570816,12.191436858644144
60,124,33570816,12.13096352271438
61,126,33570816,12.18818359453001
62,130,33579008,12.03717798342993
63,132,33579008,12.045887649945778
64,134,33579008,12.021186266230245
65,136,33579008,12.071246182688142
66,138,33579008,12.061806551356508
67,140,33579008,12.100198949291173
68,142,33579008,12.099780374210635
69,144,33579008,12.166135333594925
70,146,33579008,12.099919896019772
71,148,33579008,12.18804258899385
72,150,33579008,12.172909726761217
73,152,33579008,12.193282675368042
74,154,33579008,12.148669666900265
75,156,33579008,12.180964123860631
76,158,33579008,12.21940854568731
77,160,33579008,12.245360811208009
78,162,33579008,12.245785053501221
79,164,33579008,12.223963608061501
80,166,33579008,12.231515404952344
81,168,33579008,12.110812519588682
82,170,33579008,12.142765240289568
83,172,33579008,12.11962473530398
84,174,33579008,12.216416685978974
85,176,33579008,12.109973929247245
86,178,33579008,12.189312365257473
87,180,33579008,12.148107093177432
88,182,33579008,12.218128045980524
89,184,33579008,12.134620937284417
90,186,33579008,12.11682581746787
91,188,33579008,12.054882569122865
92,190,33579008,12.151065583677285
93,194,33587200,12.090046136064133
94,196,33587200,12.073774431300823
95,198,33587200,12.092414050835577
96,200,33587200,12.093250006931065
97,202,33587200,12.126783289423184
98,204,33587200,12.133652541108477
99,206,33587200,12.094922265910974
100,208,33587200,12.157685916070585
101,210,33587200,12.084478228316016
102,212,33587200,12.171643540790363
103,214,33587200,12.086983152025468
104,216,33587200,12.19115318177875
105,218,33587200,12.154874478425922
106,220,33587200,12.210583412071927
107,222,33587200,12.196536388761693
108,224,33587200,12.203910591181423
109,226,33587200,12.210015228347046
110,228,33587200,12.231790447846858
111,230,33587200,12.22409778346512
112,232,33587200,12.123701664937057
113,234,33587200,12.210729905512554
114,236,33587200,12.232360660012542
115,238,33587200,12.22736865404365
116,240,33587200,12.185350311769984
117,242,33587200,12.232213647102355
118,244,33587200,12.171078975108992
119,246,33587200,12.196536388761693
120,248,33587200,12.119082163690887
121,250,33587200,12.211862018815616
122,252,33587200,12.091856810975814
123,254,33587200,12.228797705935339
124,258,33595392,12.115742852804908
125,260,33595392,12.093552136658605
126,262,33595392,12.10052158240343
127,264,33595392,12.117984762429671
128,266,33595392,12.12861999612264
129,268,33595392,12.14475496945862
130,270,33595392,12.146581624112248
131,272,33595392,12.145597972563813
132,274,33595392,12.109314529602143
133,276,33595392,12.187473404264967
134,278,33595392,12.175463800208027
135,280,33595392,12.197526830070592
136,282,33595392,12.153194666620362
137,284,33595392,12.160932929409494
138,286,33595392,12.11518359725337
139,288,33595392,12.192998081517016
140,290,33595392,12.209020942069698
141,292,33595392,12.189454457979256
142,294,33595392,12.21214089654498
143,296,33595392,12.12469796879844
144,298,33595392,12.172777139867364
145,300,33595392,12.193843369650079
146,302,33595392,12.184220213565
147,304,33595392,12.206745224455062
148,306,33595392,12.241759819438427
149,308,33595392,12.123857864356562
150,310,33595392,12.1873319250681
151,312,33595392,12.113226609342092
152,314,33595392,12.244191411708364
153,316,33595392,12.109593880067578
154,318,33595392,12.248758275882059
155,322,33603584,12.008935696506523
156,324,33603584,12.019382047891414
157,326,33603584,12.080497864748086
158,328,33603584,12.098173406658686
159,330,33603584,12.14785690917011
160,332,33603584,12.067309733006928
161,334,33603584,12.084668528801778
162,336,33603584,12.234335349598895
163,338,33603584,12.158546456071262
164,340,33603584,12.203624816329613
165,342,33603584,12.153199332079325
166,344,33603584,12.222800803417945
167,346,33603584,12.219671718622612
168,348,33603584,12.224650561437233
169,350,33603584,12.160517635393465
170,352,33603584,12.17010103366014
171,354,33603584,12.172499243827914
172,356,33603584,12.15615813764368
173,358,33603584,12.235048072056747
174,360,33603584,12.117718289492426
175,362,33603584,12.220520502282557
176,364,33603584,12.225927043012845
177,366,33603584,12.21910296623451
178,368,33603584,12.138032273608303
179,370,33603584,12.248034145043539
180,372,33603584,12.150949318227264
181,374,33603584,12.210436047758062
182,376,33603584,12.138869753343522
183,378,33603584,12.294634366935936
184,380,33603584,12.088281085872321
185,382,33603584,12.245173237967212
186,386,33611776,12.133413568706471
187,388,33611776,12.120812257060154
188,390,33611776,12.113962541325314
189,392,33611776,12.148714675348991
190,394,33611776,12.061657975865758
191,396,33611776,12.204188782034757
192,398,33611776,12.153208389573452
193,400,33611776,12.25316374480061
194,402,33611776,12.152645944264208
195,404,33611776,12.252873403993547
196,406,33611776,12.240312601284055
197,408,33611776,12.277937956037734
198,410,33611776,12.218238710903975
199,412,33611776,12.254588847637315
200,414,33611776,12.255017783603353
201,416,33611776,12.244878807242056
202,418,33611776,12.21468657592929
203,420,33611776,12.248444063353288
204,422,33611776,12.260887391833753
205,424,33611776,12.197381747715154
206,426,33611776,12.28138337851372
207,428,33611776,12.193138393696035
208,430,33611776,12.239314197655391
209,432,33611776,12.220086637690486
210,434,33611776,12.231755686410514
211,436,33611776,12.143794292609874
212,438,33611776,12.259451880820059
213,440,33611776,12.184651702679757
214,442,33611776,12.2670446707051
215,444,33611776,12.16221900100665
216,446,33611776,12.267470001762831
217,450,33619968,12.068616720542334
218,452,33619968,12.005176299859738
219,454,33619968,12.07596442579848
220,456,33619968,12.16151755047559
221,458,33619968,12.132731195150944
222,460,33619968,12.186627392969084
223,462,33619968,12.130910035613384
224,464,33619968,12.240581169657457
225,466,33619968,12.228044147573211
226,468,33619968,12.19851745420109
227,470,33619968,12.181403812109094
228,472,33619968,12.161376776233709
229,474,33619968,12.19752167311554
230,476,33619968,12.207300640829429
231,478,33619968,12.270750983814418
232,480,33619968,12.198375822084959
233,482,33619968,12.190445249003316
234,484,33619968,12.259868620176364
235,486,33619968,12.288260496750297
236,488,33619968,12.207726169039768
237,490,33619968,12.235164303273692
238,492,33619968,12.222069617876375
239,494,33619968,12.253572656064632
240,496,33619968,12.249857989687811
241,498,33619968,12.274191534523661
242,500,33619968,12.178297398507452
243,502,33619968,12.27260989599665
244,504,33619968,12.158988510070415
245,506,33619968,12.268315093837009
246,508,33619968,12.160818110593377
247,510,33619968,12.262439804749093
248,514,33628160,11.998093329794006
249,516,33628160,11.964493786697302
250,518,33628160,12.003026798589397
251,520,33628160,12.078355931953794
252,522,33628160,12.06781456535368
253,524,33628160,12.120846004209188
254,526,33628160,12.064623712390613
255,528,33628160,12.140033544859932
256,530,33628160,12.1085559207885
257,532,33628160,12.214111321208389
258,534,33628160,12.241994851746536
259,536,33628160,12.184650124153993
260,538,33628160,12.192571225117709
261,540,33628160,12.24513754412387
262,542,33628160,12.274023161688353
263,544,33628160,12.161106775513865
264,546,33628160,12.204465561780912
265,548,33628160,12.20021492128381
266,550,33628160,12.295276827052698
267,552,33628160,12.204461132489342
268,554,33628160,12.22732802811094
269,556,33628160,12.233586616022254
270,558,33628160,12.256129584591784
271,560,33628160,12.197944698899585
272,562,33628160,12.269012171905453
273,564,33628160,12.1519616753207
274,566,33628160,12.286507959995602
275,568,33628160,12.22135565254998
276,570,33628160,12.252990177395695
277,572,33628160,12.17857821896203
278,574,33628160,12.280195120811157
279,578,33636352,12.09046981457951
280,580,33636352,12.074082024358262
281,582,33636352,12.109273202807323
282,584,33636352,12.181267061598845
283,586,33636352,12.079350258707125
284,588,33636352,12.185644739063429
285,590,33636352,12.106204958971567
286,592,33636352,12.200632949271565
287,594,33636352,12.125057360553026
288,596,33636352,12.24526236426908
289,598,33636352,12.270993646044127
290,600,33636352,12.268415652607157
291,602,33636352,12.234150074453096
292,604,33636352,12.254827501154024
293,606,33636352,12.250118908965627
294,608,33636352,12.274432656451216
295,610,33636352,12.217512747327946
296,612,33636352,12.206446312302631
297,614,33636352,12.219785265932673
298,616,33636352,12.156749444411716
299,618,33636352,12.23073359634929
300,620,33636352,12.26813375029087
301,622,33636352,12.199216974853613
302,624,33636352,12.20134105975279
303,626,33636352,12.187618370225652
304,628,33636352,12.124497926824828
305,630,33636352,12.234572818334353
306,632,33636352,12.153095021568303
307,634,33636352,12.238280866261542
308,636,33636352,12.0999338460415
309,638,33636352,12.159843365388335
310,642,33644544,12.025911552859503
311,644,33644544,12.043958089536382
312,646,33644544,11.948824456977256
313,648,33644544,12.119203136735065
314,650,33644544,12.060675213390272
315,652,33644544,12.141740364968086
316,654,33644544,12.089659814029801
317,656,33644544,12.193277207377314
318,658,33644544,12.079242628941245
319,660,33644544,12.255240283551748
320,662,33644544,12.21650799575748
321,664,33644544,12.208001474631905
322,666,33644544,12.201484434328686
323,668,33644544,12.205875587990517
324,670,33644544,12.233707894584697
325,672,33644544,12.22958563879323
326,674,33644544,12.22801662116913
327,676,33644544,12.182252883751598
328,678,33644544,12.217222213749272
329,680,33644544,12.205875587990517
330,682,33644544,12.266822035149689
331,684,33644544,12.218353599478792
332,686,33644544,12.23470886125663
333,688,33644544,12.193555612174077
334,690,33644544,12.195252830645533
335,692,33644544,12.157882241301369
336,694,33644544,12.243542258169933
337,696,33644544,12.212539175394694
338,698,33644544,12.168858079424712
339,700,33644544,12.181547158922013
340,702,33644544,12.225315120897633
341,706,33652736,12.075801881088319
342,708,33652736,12.118382469709207
343,710,33652736,12.02045275381721
344,712,33652736,12.207005271981886
345,714,33652736,12.063750212846044
346,716,33652736,12.197090405892691
347,718,33652736,12.121734826820967
348,720,33652736,12.230282770949607
349,722,33652736,12.151006862865101
350,724,33652736,12.207142538451187
351,726,33652736,12.237118252950669
352,728,33652736,12.258367157969277
353,730,33652736,12.226732403474799
354,732,33652736,12.25023242607686
355,734,33652736,12.206150746944811
356,736,33652736,12.190308387916602
357,738,33652736,12.193413483260873
358,740,33652736,12.230851732332944
359,742,33652736,12.195675942478779
360,744,33652736,12.165344131954875
361,746,33652736,12.211541127231373
362,748,33652736,12.213805886321758
363,750,33652736,12.187902254089678
364,752,33652736,12.215370877874372
365,754,33652736,12.192989365606682
366,756,33652736,12.112106154609172
367,758,33652736,12.151849296098616
368,760,33652736,12.104712900632522
369,762,33652736,12.167033094170241
370,765,33652736,12.31247809361991
371,767,33652736,12.334423732360735
372,770,33660928,11.881456966732838
373,772,33660928,11.930783514706253
374,774,33660928,11.969610969920693
375,776,33660928,12.105991761247365
376,778,33660928,12.061429179039203
377,780,33660928,12.125384401191468
378,782,33660928,12.120494413239852
379,784,33660928,12.204872314666726
380,786,33660928,12.14764868640479
381,788,33660928,12.23184188436395
382,790,33660928,12.149893646242823
383,792,33660928,12.188613411450318
384,794,33660928,12.08165480368929
385,796,33660928,12.141339182368636
386,798,33660928,12.166194453510407
387,800,33660928,12.142600558775095
388,802,33660928,12.187060059622986
389,804,33660928,12.19496774001886
390,807,33660928,12.28985888228166
391,808,33660928,12.136156275925176
392,810,33660928,12.184232387374067
393,812,33660928,12.222887615716617
394,814,33660928,12.16366215149232
395,816,33660928,12.193558530003079
396,818,33660928,12.083177062842276
397,821,33660928,12.336996702161738
398,823,33660928,12.323699438895394
399,825,33660928,12.27623316030619
400,827,33660928,12.334537438283208
401,828,33660928,11.936334213817611
402,830,33660928,12.109889722455167
403,834,33669120,12.110466745342995
404,836,33669120,12.055655833002424
405,838,33669120,12.099743012997411
406,841,33669120,12.345066647502653
407,842,33669120,12.049719005519682
408,844,33669120,12.067823874700672
409,846,33669120,12.101830562036353
410,848,33669120,12.119254856917424
411,850,33669120,12.021221026654104
412,852,33669120,12.19596055751522
413,854,33669120,12.135753867358908
414,856,33669120,12.250060578805932
415,858,33669120,12.176337651037366
416,860,33669120,12.221885842352064
417,862,33669120,12.210680544725914
418,865,33669120,12.327998506101915
419,867,33669120,12.345351818722818
420,869,33669120,12.325254656593396
421,871,33669120,12.33912631425025
422,873,33669120,12.339130836319551
423,875,33669120,12.332767044168357
424,877,33669120,12.337539272656118
425,879,33669120,12.341446571172824
426,881,33669120,12.289264807545885
427,883,33669120,12.31342227365038
428,884,33669120,11.947097847408118
429,886,33669120,12.013946104607204
430,888,33669120,12.1129763335685
431,890,33669120,12.116742666695936
432,892,33669120,12.10085628285188
433,894,33669120,12.106286408351723
