idx,og Index,data (B),bandwidth (GB/s)
0,0,33669120,11.965588527234598
1,2,33669120,12.06415272821086
2,4,33669120,12.05419697151419
3,6,33669120,12.086621013680102
4,8,33669120,12.047291596445616
5,12,33685504,11.826608399943686
6,14,33685504,11.880025702933619
7,16,33685504,11.906244455205126
8,18,33685504,11.848585190703616
9,20,33685504,11.813725741191918
10,22,33685504,11.743832444845603
11,24,33685504,12.07099653660573
12,26,33685504,11.874928922466353
13,28,33685504,11.997210605681788
14,30,33685504,11.97141119805077
15,32,33685504,12.105161138001085
16,34,33685504,11.811865759461623
17,36,33685504,12.213225182252964
18,38,33685504,11.869974540809585
19,40,33685504,12.152566269006929
20,42,33685504,11.840713588724759
21,44,33685504,12.099869394487557
22,46,33685504,11.902067080933199
23,48,33685504,12.128046637825259
24,50,33685504,11.929870340523022
25,52,33685504,12.110178869177512
26,54,33685504,11.95332294567201
27,56,33685504,12.125951054871763
28,58,33685504,11.889426633611366
29,60,33685504,12.14400552591752
30,62,33685504,11.867164433070863
31,64,33685504,12.11031818904109
32,66,33685504,12.090280399861602
33,68,33685504,12.091248163546895
34,70,33685504,12.067256079212461
35,72,33685504,12.07931167779613
36,76,33701888,11.854614985785812
37,78,33701888,11.925806530375663
38,80,33701888,11.84780952601925
39,82,33701888,11.90166596331879
40,84,33701888,11.887820534301143
41,86,33701888,11.7672792990586
42,88,33701888,12.037639626118287
43,90,33701888,11.891041819192196
44,92,33701888,12.132132763455024
45,94,33701888,11.88285361497057
46,96,33701888,12.15342168171575
47,98,33701888,11.915408871850769
48,100,33701888,12.197358858767563
49,102,33701888,11.909072084366631
50,104,33701888,12.182258059268968
51,106,33701888,11.876819262910207
52,108,33701888,12.13604282018633
53,110,33701888,11.987053284979961
54,112,33701888,12.218598420372375
55,114,33701888,11.957910513004652
56,116,33701888,12.109934800457781
57,118,33701888,11.937296222818935
58,120,33701888,12.106311165776047
59,122,33701888,11.958593648816716
60,124,33701888,12.056669612097492
61,126,33701888,11.965386820704996
62,128,33701888,12.092684335827684
63,130,33701888,12.048798834227826
64,132,33701888,12.10380242816688
65,134,33701888,12.085321173623345
66,136,33701888,12.035713711766876
67,140,33718272,11.73587089880425
68,142,33718272,11.77483764243936
69,144,33718272,11.793036295873485
70,146,33718272,11.795284652785625
71,148,33718272,11.673943751696479
72,150,33718272,11.711332128101864
73,152,33718272,12.028360131576742
74,154,33718272,11.817919014365886
75,156,33718272,12.059907764875543
76,158,33718272,11.82641220104949
77,160,33718272,12.009154778584998
78,162,33718272,11.815132063293388
79,164,33718272,12.066402971951332
80,167,33718272,12.295187128335952
81,168,33718272,12.118330129286782
82,170,33718272,11.9035466761561
83,172,33718272,12.104400419152498
84,174,33718272,11.843572530495601
85,176,33718272,12.185643261105966
86,178,33718272,11.890508616828823
87,180,33718272,12.028222824615456
88,182,33718272,11.801101352576321
89,184,33718272,12.00053385893525
90,186,33718272,11.761169061517345
91,188,33718272,12.062945183768997
92,190,33718272,11.83119680162361
93,192,33718272,11.961958172153178
94,194,33718272,11.973792669475847
95,196,33718272,11.914857408385705
96,198,33718272,11.930924474651501
97,200,33718272,11.898703391268967
98,204,33734656,11.348378764876081
99,206,33734656,11.387383251548798
100,208,33734656,11.692315157464009
101,210,33734656,11.760181192651755
102,212,33734656,11.90488837663802
103,214,33734656,11.755325058001892
104,216,33734656,11.930229284829657
105,218,33734656,11.740392512800238
106,220,33734656,12.017870775667332
107,222,33734656,11.782274891117188
108,224,33734656,12.087496667708157
109,226,33734656,11.747727217325593
110,228,33734656,12.101658555764336
111,230,33734656,11.689592500842899
112,232,33734656,12.069912105384807
113,234,33734656,11.92429172837717
114,236,33734656,12.11780777336469
115,238,33734656,11.817961943917796
116,240,33734656,12.10277001452993
117,242,33734656,11.815706030222037
118,244,33734656,12.105688565381433
119,246,33734656,11.782406576280989
120,248,33734656,12.051689718787467
121,250,33734656,11.86173092671531
122,252,33734656,12.060242122509857
123,254,33734656,11.82047964971639
124,256,33734656,12.021845164467717
125,258,33734656,12.039981640937569
126,260,33734656,12.017870775667332
127,262,33734656,12.028570776568312
128,264,33734656,11.93671759034013
129,268,33751040,12.008776989117003
130,270,33751040,11.922257267672391
131,273,33751040,12.242956617377136
132,274,33751040,11.860014674339304
133,276,33751040,11.89789767982281
134,278,33751040,11.80410476405983
135,280,33751040,12.05368025910864
136,282,33751040,11.888509994670589
137,284,33751040,11.955790090425497
138,286,33751040,11.905019565958126
139,288,33751040,11.98242915229855
140,290,33751040,11.858814534558507
141,292,33751040,12.090728899820562
142,294,33751040,11.947122779009817
143,296,33751040,12.11644206167743
144,299,33751040,12.307279412944453
145,300,33751040,12.022336991929432
146,302,33751040,11.871770538233662
147,304,33751040,12.086572285681237
148,306,33751040,11.88247868965119
149,308,33751040,12.047480244525973
150,310,33751040,11.645783114238334
151,312,33751040,12.024392911562693
152,314,33751040,11.869361567593668
153,316,33751040,12.016169171055845
154,318,33751040,11.802251415527158
155,320,33751040,11.922796355375285
156,322,33751040,11.998249553767742
157,324,33751040,11.94468313413165
158,326,33751040,11.953893041631913
159,329,33751040,12.335798223992187
160,332,33767424,11.967431360110009
161,335,33767424,12.324336161419147
162,336,33767424,11.482331434540617
163,338,33767424,11.847512253655045
164,340,33767424,11.733624663549044
165,342,33767424,11.778309514474788
166,344,33767424,11.968110014354322
167,346,33767424,11.67530158598442
168,348,33767424,11.95576630907571
169,350,33767424,11.783044242303275
170,352,33767424,11.932495862885622
171,354,33767424,11.811553398975182
172,356,33767424,12.001889455480683
173,358,33767424,11.862703933223726
174,360,33767424,12.008859565642297
175,362,33767424,11.820289883482326
176,364,33767424,12.03846899777537
177,366,33767424,11.628181120068321
178,368,33767424,12.12190606654885
179,370,33767424,11.829702350110932
180,372,33767424,11.993155175634811
181,374,33767424,11.784495836722899
182,376,33767424,12.04630672443532
183,378,33767424,11.838731346527906
184,380,33767424,11.972866995304448
185,382,33767424,11.791742705987115
186,384,33767424,11.924401227208778
187,386,33767424,12.001484217395198
188,388,33767424,11.88262017511047
189,390,33767424,11.923188610491229
190,392,33767424,12.051401345491533
191,396,33783808,12.03840023489695
192,398,33783808,12.210876647903024
193,400,33783808,11.818607275705284
194,402,33783808,11.86058467706545
195,404,33783808,11.77994420325052
196,406,33783808,11.726791692063752
197,408,33783808,11.95763411357127
198,410,33783808,11.879548346738222
199,412,33783808,12.018652781908452
200,414,33783808,11.847270893540529
201,416,33783808,12.068145544434204
202,418,33783808,11.935590405969242
203,420,33783808,12.14719678757602
204,422,33783808,11.92398451962665
205,424,33783808,12.062074478663282
206,426,33783808,11.826819980241845
207,428,33783808,12.067865339517803
208,430,33783808,11.82350870144351
209,432,33783808,12.1464936435841
210,434,33783808,11.836105582417552
211,436,33783808,12.04403527385149
212,438,33783808,11.832652337858748
213,440,33783808,12.085560992292299
214,442,33783808,11.769565480947508
215,444,33783808,11.9011212142989
216,446,33783808,11.76444647344923
217,448,33783808,12.006074147097989
218,450,33783808,11.976094467901977
219,452,33783808,11.921560877974452
220,454,33783808,11.88142005299965
221,456,33783808,12.063866294007347
