idx,og Index,data (B),bandwidth (GB/s)
0,0,8192,1.0987124463519313
1,1,8192,1.0281124497991967
2,2,8192,2.4380952380952383
3,3,8192,2.4380952380952383
4,4,8192,2.5098039215686274
5,5,8192,2.4615384615384617
6,6,8192,2.462278328824767
7,7,8192,1.3473684210526315
8,8,8192,1.0940170940170941
9,9,8192,2.4143825523135867
10,10,8192,2.4150943396226414
11,11,8192,2.4380952380952383
12,12,8192,1.0893617021276596
13,13,8192,0.9343065693430657
14,14,8192,2.4380952380952383
15,15,8192,2.437369830407617
16,16,8192,1.4545454545454546
17,17,8192,1.0847457627118644
18,18,8192,2.4380952380952383
19,19,8192,1.080168776371308
20,20,8192,2.4380952380952383
21,21,8192,1.1083750507373833
22,22,8192,2.4150943396226414
23,23,8192,2.3932223196026876
24,24,8192,2.4150943396226414
25,25,8192,2.4380952380952383
26,26,8192,2.4615384615384617
27,27,8192,2.392523364485981
28,32,8192,2.4615384615384617
29,33,8192,2.4380952380952383
30,34,8192,1.841726618705036
31,35,8192,1.0711297071129706
32,36,8192,2.3703703703703702
33,37,8192,2.4854368932038833
34,38,8192,1.0666666666666667
35,39,8192,1.1277533039647578
36,40,8192,2.4854368932038833
37,41,8192,2.4380952380952383
38,42,8192,1.0987124463519313
39,43,8192,2.4380952380952383
40,44,8192,2.4380952380952383
41,45,8192,2.4380952380952383
42,46,8192,2.3063063063063063
43,47,8192,2.3063063063063063
44,48,8192,1.248780487804878
45,49,8192,2.4380952380952383
46,50,8192,0.9309090909090909
47,51,8192,0.9078014184397163
48,52,8192,2.4615384615384617
49,53,8192,2.4854368932038833
50,54,8192,2.4380952380952383
51,55,8192,1.9104477611940298
52,56,8192,2.56
53,57,8192,2.392523364485981
54,58,8192,1.3542734336253925
55,59,8192,1.0281124497991967
56,64,8192,2.4615384615384617
57,65,8192,2.098360655737705
58,66,8192,1.080168776371308
59,67,8192,1.1228070175438596
60,68,8192,1.4628571428571429
61,69,8192,2.4854368932038833
62,70,8192,2.5098039215686274
63,71,8192,2.4380952380952383
64,72,8192,2.4150943396226414
65,73,8192,1.2075471698113207
66,74,8192,2.4380952380952383
67,75,8192,2.3703703703703702
68,76,8192,1.4301675977653632
69,77,8192,0.9343065693430657
70,78,8192,2.4615384615384617
71,79,8192,2.510573092246399
72,80,8192,2.438821077701697
73,81,8192,1.1277533039647578
74,82,8192,2.4615384615384617
75,83,8192,1.1689497716894977
76,84,8192,2.392523364485981
77,85,8192,2.4380952380952383
78,86,8192,2.4615384615384617
79,87,8192,1.080168776371308
80,88,8192,2.2857142857142856
81,89,8192,2.4854368932038833
82,90,8192,2.4854368932038833
83,91,8192,0.9884169884169884
84,96,8192,2.4854368932038833
85,97,8192,2.4380952380952383
86,98,8192,2.4854368932038833
87,99,8192,2.245614035087719
88,100,8192,1.0987124463519313
89,101,8192,1.2427184466019416
90,102,8192,2.207491242252762
91,103,8192,1.5058823529411764
92,104,8192,2.3703703703703702
93,105,8192,2.4607990387503755
94,106,8192,2.4615384615384617
95,107,8192,1.5515151515151515
96,108,8192,1.122960932145305
97,109,8192,1.045031253986478
98,110,8192,2.3486238532110093
99,111,8192,2.3703703703703702
100,112,8192,1.3689839572192513
101,113,8192,1.062240663900415
102,114,8192,1.0893617021276596
103,115,8192,0.9552238805970149
104,116,8192,2.4150943396226414
105,117,8192,2.5090352220520673
106,118,8192,1.391304347826087
107,119,8192,1.0534979423868314
108,120,8192,2.4150943396226414
109,121,8192,2.265486725663717
110,122,8192,1.0365683917499684
111,123,8192,2.327272727272727
112,128,8192,1.003921568627451
113,129,8192,1.7066666666666668
114,130,8192,2.3486238532110093
115,131,8192,2.5346534653465347
116,132,8192,1.1082251082251082
117,133,8192,1.28
118,134,8192,1.8028169014084507
119,135,8192,0.8648648648648649
120,136,8192,1.9844961240310077
121,137,8192,1.3403141361256545
122,138,8192,1.0666666666666667
123,139,8192,1.0578512396694215
124,140,8192,2.3703703703703702
125,141,8192,2.3703703703703702
126,142,8192,1.2075471698113207
127,143,8192,1.0940170940170941
128,144,8192,2.4150943396226414
129,145,8192,2.4150943396226414
130,146,8192,1.0847457627118644
131,147,8192,1.4222222222222223
132,148,8192,2.4854368932038833
133,149,8192,2.4150943396226414
134,150,8192,0.8951048951048951
135,151,8192,2.4854368932038833
136,152,8192,0.9922480620155039
137,153,8192,1.1743119266055047
138,154,8192,2.4615384615384617
139,155,8192,2.4380952380952383
140,160,8192,2.4615384615384617
141,161,8192,2.3918248175182484
142,162,8192,1.2307692307692308
143,163,8192,0.7664670658682635
144,164,8192,1.684556857906642
145,165,8192,2.4854368932038833
146,166,8192,2.4615384615384617
147,167,8192,2.3703703703703702
148,168,8192,1.103448275862069
149,169,8192,1.1082251082251082
150,170,8192,1.1689497716894977
151,171,8192,2.4615384615384617
152,172,8192,2.4854368932038833
153,173,8192,1.0893617021276596
154,174,8192,0.9552238805970149
155,175,8192,1.1906976744186046
156,176,8192,2.4615384615384617
157,177,8192,2.4158065467413743
158,178,8192,1.1228070175438596
159,179,8192,1.1743119266055047
160,180,8192,1.0666666666666667
161,181,8192,1.0364372469635628
162,182,8192,2.4150943396226414
163,183,8192,2.392523364485981
164,184,8192,2.3703703703703702
165,185,8192,2.437369830407617
166,186,8192,2.4615384615384617
167,187,8192,2.115702479338843
168,192,8192,2.1880341880341883
169,193,8192,1.1481429572529782
170,194,8192,0.9961089494163424
171,195,8192,1.0079980312538452
172,196,8192,0.9588014981273408
173,197,8192,1.1377777777777778
174,198,8192,1.590370801786061
175,199,8192,1.3544973544973544
176,200,8192,1.1430166038788894
177,201,8192,1.0491803278688525
178,202,8192,1.1906976744186046
179,203,8192,2.4380952380952383
180,204,8192,0.9078014184397163
181,205,8192,2.1333333333333333
182,206,8192,2.4380952380952383
183,207,8192,2.4607990387503755
184,208,8192,2.4607990387503755
185,209,8192,2.4854368932038833
186,210,8192,2.4615384615384617
187,211,8192,2.1880341880341883
188,212,8192,2.4854368932038833
189,213,8192,2.4615384615384617
190,214,8192,2.4380952380952383
191,215,8192,0.847682119205298
192,216,8192,2.4854368932038833
193,217,8192,2.4380952380952383
194,218,8192,2.4615384615384617
195,219,8192,2.4150943396226414
196,224,8192,2.4143825523135867
197,225,8192,2.4380952380952383
198,227,8192,2.4380952380952383
199,228,8192,2.4615384615384617
200,229,8192,2.462278328824767
201,230,8192,2.4380952380952383
202,231,8192,2.4380952380952383
203,232,8192,2.4854368932038833
204,233,8192,2.4615384615384617
205,234,8192,2.4380952380952383
206,235,8192,2.4380952380952383
207,236,8192,2.4854368932038833
208,237,8192,2.4854368932038833
209,238,8192,2.4380952380952383
210,239,8192,2.4615384615384617
211,240,8192,2.4615384615384617
212,241,8192,2.4615384615384617
213,242,8192,2.4615384615384617
214,243,8192,2.4615384615384617
215,244,8192,2.4150943396226414
216,245,8192,2.4607990387503755
217,246,8192,2.4615384615384617
218,247,8192,2.4615384615384617
219,248,8192,2.5098039215686274
220,249,8192,2.4380952380952383
221,250,8192,2.4615384615384617
222,251,8192,2.438821077701697
223,256,8192,2.4150943396226414
224,257,8192,2.5346534653465347
225,258,8192,2.4615384615384617
226,259,8192,2.7243099434652476
227,260,8192,2.4615384615384617
228,261,8192,2.4854368932038833
229,262,8192,2.392523364485981
230,263,8192,2.4150943396226414
231,264,8192,2.4380952380952383
232,265,8192,2.4150943396226414
233,266,8192,2.4380952380952383
234,267,8192,2.4615384615384617
235,268,8192,2.4615384615384617
236,270,8192,2.4615384615384617
237,271,8192,2.438821077701697
238,272,8192,2.3486238532110093
239,273,8192,2.4380952380952383
240,274,8192,2.4380952380952383
241,275,8192,2.3918248175182484
242,276,8192,2.4854368932038833
243,277,8192,2.4615384615384617
244,278,8192,2.4380952380952383
245,279,8192,2.4615384615384617
246,280,8192,2.392523364485981
247,281,8192,2.4380952380952383
248,282,8192,2.4854368932038833
249,283,8192,2.462278328824767
250,288,8192,2.4854368932038833
251,289,8192,2.4854368932038833
252,290,8192,2.4380952380952383
253,291,8192,2.462278328824767
254,292,8192,2.392523364485981
255,293,8192,2.4615384615384617
256,294,8192,2.4150943396226414
257,295,8192,2.4380952380952383
258,296,8192,2.4615384615384617
259,298,8192,2.4380952380952383
260,300,8192,2.4380952380952383
261,301,8192,2.4854368932038833
262,302,8192,2.4380952380952383
263,303,8192,2.4615384615384617
264,304,8192,2.4854368932038833
265,305,8192,2.4607990387503755
266,306,8192,2.4380952380952383
267,307,8192,2.4615384615384617
268,308,8192,2.4854368932038833
269,309,8192,2.4150943396226414
270,310,8192,2.4380952380952383
271,311,8192,2.392523364485981
272,312,8192,2.4615384615384617
273,314,8192,2.4615384615384617
274,315,8192,2.510573092246399
275,320,8192,2.4380952380952383
276,321,8192,2.438821077701697
277,322,8192,2.5098039215686274
278,323,8192,2.3703703703703702
279,324,8192,2.4380952380952383
280,326,8192,2.392523364485981
281,327,8192,2.4854368932038833
282,328,8192,2.4615384615384617
283,329,8192,2.4615384615384617
284,330,8192,2.4854368932038833
285,331,8192,2.4150943396226414
286,332,8192,2.4615384615384617
287,333,8192,2.5098039215686274
288,334,8192,2.5098039215686274
289,335,8192,2.4150943396226414
290,336,8192,2.4854368932038833
291,337,8192,2.4854368932038833
292,338,8192,1.7777777777777777
293,339,8192,2.4607990387503755
294,340,8192,2.392523364485981
295,341,8192,2.4380952380952383
296,342,8192,2.4615384615384617
297,343,8192,2.4854368932038833
298,344,8192,2.4380952380952383
299,345,8192,2.4861911987860394
300,346,8192,2.4380952380952383
301,347,8192,2.4854368932038833
302,352,8192,2.4380952380952383
303,353,8192,2.4150943396226414
304,354,8192,2.4150943396226414
305,355,8192,2.0317460317460316
306,356,8192,2.4861911987860394
307,357,8192,2.4380952380952383
308,358,8192,2.438821077701697
309,359,8192,2.392523364485981
310,360,8192,2.4615384615384617
311,361,8192,2.4615384615384617
312,362,8192,2.4380952380952383
313,363,8192,2.4150943396226414
314,364,8192,2.4615384615384617
315,365,8192,2.4607990387503755
316,366,8192,2.4150943396226414
317,367,8192,2.4380952380952383
318,368,8192,2.438821077701697
319,369,8192,2.4380952380952383
320,370,8192,2.4380952380952383
321,371,8192,2.462278328824767
322,372,8192,2.462278328824767
323,373,8192,2.4150943396226414
324,374,8192,2.3932223196026876
325,375,8192,2.4380952380952383
326,376,8192,2.4380952380952383
327,377,8192,2.462278328824767
328,378,8192,2.3703703703703702
329,379,8192,2.4380952380952383
330,384,8192,2.392523364485981
331,385,8192,2.438821077701697
332,386,8192,2.098360655737705
333,387,8192,1.2931333859510654
334,388,8192,2.4615384615384617
335,389,8192,2.4380952380952383
336,390,8192,2.4854368932038833
337,391,8192,2.4615384615384617
338,392,8192,2.4380952380952383
339,393,8192,2.4615384615384617
340,394,8192,2.437369830407617
341,395,8192,2.4615384615384617
342,396,8192,2.4615384615384617
343,397,8192,2.462278328824767
344,398,8192,2.4615384615384617
345,399,8192,2.4380952380952383
346,400,8192,2.4615384615384617
347,401,8192,2.4615384615384617
348,402,8192,2.4150943396226414
349,403,8192,2.4380952380952383
350,404,8192,2.4380952380952383
351,405,8192,2.462278328824767
352,406,8192,2.4380952380952383
353,407,8192,2.4150943396226414
354,408,8192,2.4150943396226414
355,409,8192,2.4380952380952383
356,410,8192,2.4380952380952383
357,411,8192,2.4615384615384617
358,416,8192,2.4380952380952383
359,417,8192,2.4615384615384617
360,418,8192,2.6675350048844026
361,419,8192,2.4854368932038833
362,420,8192,2.4615384615384617
363,421,8192,2.3703703703703702
364,422,8192,2.3486238532110093
365,423,8192,2.4615384615384617
366,424,8192,2.4380952380952383
367,425,8192,2.4854368932038833
368,426,8192,2.4158065467413743
369,427,8192,2.4380952380952383
370,428,8192,2.4150943396226414
371,430,8192,2.4854368932038833
372,431,8192,2.3703703703703702
373,432,8192,0.9846153846153847
374,433,8192,2.4861911987860394
375,438,8192,2.4854368932038833
376,440,8192,2.4380952380952383
377,442,8192,2.4615384615384617
378,443,8192,2.4854368932038833
379,444,8192,2.4615384615384617
380,445,8192,2.392523364485981
381,446,8192,2.5098039215686274
382,447,8192,2.5346534653465347
383,448,8192,2.4615384615384617
384,449,8192,2.5098039215686274
385,450,8192,2.4854368932038833
386,451,8192,2.4380952380952383
387,452,8192,2.462278328824767
388,453,8192,2.4615384615384617
389,454,8192,2.4854368932038833
390,455,8192,2.4854368932038833
391,456,8192,2.4861911987860394
392,457,8192,2.4150943396226414
393,458,8192,2.4861911987860394
394,459,8192,2.5098039215686274
395,460,8192,2.4854368932038833
396,461,8192,2.4615384615384617
397,462,8192,2.5098039215686274
398,463,8192,2.4380952380952383
399,464,8192,2.4150943396226414
400,465,8192,2.4150943396226414
401,470,8192,2.4854368932038833
402,471,8192,2.5098039215686274
403,472,8192,2.4854368932038833
404,473,8192,2.5098039215686274
405,474,8192,2.392523364485981
406,475,8192,2.4854368932038833
407,476,8192,2.3703703703703702
408,477,8192,2.4615384615384617
409,478,8192,2.4854368932038833
410,479,8192,2.5098039215686274
411,480,8192,2.510573092246399
412,481,8192,2.4615384615384617
413,482,8192,2.4615384615384617
414,483,8192,2.392523364485981
415,484,8192,2.4150943396226414
416,485,8192,2.392523364485981
417,486,8192,2.4380952380952383
418,487,8192,2.4150943396226414
419,489,8192,2.392523364485981
420,490,8192,2.4854368932038833
421,491,8192,2.4150943396226414
422,492,8192,2.438821077701697
423,494,8192,2.4854368932038833
424,495,8192,1.4301675977653632
425,496,8192,2.4854368932038833
426,497,8192,2.4615384615384617
427,502,8192,2.4380952380952383
428,503,8192,2.4615384615384617
429,504,8192,2.4615384615384617
430,506,8192,2.392523364485981
431,507,8192,2.392523364485981
432,508,8192,2.462278328824767
433,509,8192,2.4380952380952383
434,510,8192,2.4615384615384617
435,511,8192,2.4380952380952383
436,512,8192,2.4615384615384617
437,513,8192,2.4854368932038833
438,514,8192,2.438821077701697
439,515,8192,0.9588014981273408
440,516,8192,2.4615384615384617
441,517,8192,2.4158065467413743
442,518,8192,2.4615384615384617
443,519,8192,2.510573092246399
444,520,8192,2.4615384615384617
445,521,8192,2.4615384615384617
446,522,8192,2.3486238532110093
447,524,8192,2.4607990387503755
448,525,8192,2.1333333333333333
449,526,8192,2.4380952380952383
450,527,8192,2.4615384615384617
451,528,8192,2.4615384615384617
452,529,8192,2.462278328824767
453,534,8192,2.4150943396226414
454,535,8192,2.4615384615384617
455,536,8192,2.392523364485981
456,537,8192,2.3486238532110093
457,538,8192,2.4150943396226414
458,539,8192,2.4854368932038833
459,540,8192,2.4150943396226414
460,541,8192,2.4380952380952383
461,542,8192,2.4380952380952383
462,543,8192,2.462278328824767
463,544,8192,2.4150943396226414
464,545,8192,2.4854368932038833
465,546,8192,2.4615384615384617
466,547,8192,2.4150943396226414
467,548,8192,2.4380952380952383
468,549,8192,2.4607990387503755
469,550,8192,2.4150943396226414
470,551,8192,1.0491803278688525
471,552,8192,2.4380952380952383
472,553,8192,2.4854368932038833
473,554,8192,2.462278328824767
474,555,8192,2.4380952380952383
475,556,8192,2.4615384615384617
476,557,8192,2.4854368932038833
477,558,8192,2.4615384615384617
478,559,8192,2.4854368932038833
479,560,8192,2.4854368932038833
480,561,8192,2.3703703703703702
481,566,8192,2.4615384615384617
482,567,8192,2.4150943396226414
483,568,8192,2.4380952380952383
484,569,8192,2.4854368932038833
485,570,8192,2.4615384615384617
486,571,8192,2.4854368932038833
487,572,8192,2.392523364485981
488,573,8192,2.4615384615384617
489,574,8192,2.4854368932038833
490,575,8192,2.4854368932038833
491,576,8192,2.4615384615384617
492,577,8192,2.4854368932038833
493,578,8192,2.4854368932038833
494,579,8192,2.4615384615384617
495,580,8192,2.4150943396226414
496,581,8192,2.4607990387503755
497,582,8192,2.5098039215686274
498,583,8192,2.4615384615384617
499,584,8192,2.462278328824767
500,585,8192,2.4854368932038833
501,586,8192,2.462278328824767
502,587,8192,2.3703703703703702
503,588,8192,2.438821077701697
504,589,8192,2.4150943396226414
505,590,8192,2.4380952380952383
506,591,8192,2.4615384615384617
507,592,8192,2.4854368932038833
508,593,8192,2.4854368932038833
509,598,8192,2.4615384615384617
510,599,8192,2.4615384615384617
511,600,8192,2.392523364485981
512,601,8192,2.4854368932038833
513,602,8192,2.4380952380952383
514,603,8192,2.4854368932038833
515,604,8192,2.4615384615384617
516,605,8192,2.3703703703703702
517,606,8192,2.392523364485981
518,607,8192,2.4854368932038833
519,608,8192,2.4380952380952383
520,609,8192,2.4854368932038833
521,610,8192,2.4615384615384617
522,611,8192,2.4615384615384617
523,612,8192,2.4380952380952383
524,613,8192,2.4854368932038833
525,614,8192,2.4150943396226414
526,615,8192,2.4854368932038833
527,616,8192,2.4615384615384617
528,617,8192,2.4854368932038833
529,618,8192,2.4380952380952383
530,619,8192,2.4150943396226414
531,620,8192,2.5346534653465347
532,621,8192,2.4150943396226414
533,622,8192,2.4380952380952383
534,623,8192,2.4150943396226414
535,624,8192,2.4854368932038833
536,625,8192,2.5098039215686274
537,630,8192,2.4380952380952383
538,631,8192,2.5098039215686274
539,632,8192,2.4615384615384617
540,633,8192,2.3703703703703702
541,634,8192,2.392523364485981
542,635,8192,2.4380952380952383
543,636,8192,2.4854368932038833
544,637,8192,2.4158065467413743
545,638,8192,2.4380952380952383
546,639,8192,2.4854368932038833
547,640,8192,2.5098039215686274
548,641,8192,2.510573092246399
549,642,8192,2.5098039215686274
550,643,8192,2.4380952380952383
551,644,8192,2.4854368932038833
552,645,8192,2.4854368932038833
553,646,8192,2.4380952380952383
554,647,8192,2.5098039215686274
555,648,8192,2.4150943396226414
556,649,8192,2.5098039215686274
557,650,8192,2.4607990387503755
558,651,8192,2.4615384615384617
559,652,8192,2.533869471079493
560,653,8192,2.4854368932038833
561,654,8192,2.5098039215686274
562,655,8192,2.5346534653465347
563,656,8192,2.4854368932038833
564,657,8192,2.4380952380952383
565,662,8192,2.4615384615384617
566,663,8192,2.392523364485981
567,664,8192,2.4615384615384617
568,665,8192,2.4615384615384617
569,666,8192,2.4854368932038833
570,667,8192,2.462278328824767
571,668,8192,2.4380952380952383
572,669,8192,2.5098039215686274
573,670,8192,2.392523364485981
574,671,8192,2.4854368932038833
575,672,8192,2.4615384615384617
576,673,8192,2.392523364485981
577,674,8192,2.392523364485981
578,675,8192,2.4854368932038833
579,676,8192,2.392523364485981
580,677,8192,2.5346534653465347
581,678,8192,2.4861911987860394
582,679,8192,2.4615384615384617
583,680,8192,2.4380952380952383
584,681,8192,2.4854368932038833
585,682,8192,2.5098039215686274
586,683,8192,0.847682119205298
587,684,8192,2.4615384615384617
588,685,8192,2.4380952380952383
589,686,8192,2.5098039215686274
590,687,8192,0.9481481481481482
591,688,8192,2.4150943396226414
592,689,8192,2.4607990387503755
593,694,8192,1.1428571428571428
594,695,8192,2.4615384615384617
595,696,8192,2.4854368932038833
596,697,8192,2.462278328824767
597,698,8192,2.4380952380952383
598,699,8192,2.4380952380952383
599,700,8192,2.4615384615384617
600,701,8192,2.5098039215686274
601,702,8192,2.4854368932038833
602,703,8192,2.4615384615384617
603,704,8192,2.4854368932038833
604,705,8192,2.4854368932038833
605,706,8192,2.4854368932038833
606,707,8192,2.4615384615384617
607,708,8192,2.4615384615384617
608,709,8192,2.4854368932038833
609,710,8192,2.3703703703703702
610,711,8192,2.4854368932038833
611,712,8192,2.4854368932038833
612,713,8192,2.392523364485981
613,714,8192,2.4380952380952383
614,715,8192,2.4615384615384617
615,716,8192,2.3703703703703702
616,717,8192,2.392523364485981
617,718,8192,2.4615384615384617
618,719,8192,2.4615384615384617
619,720,8192,2.4615384615384617
620,721,8192,2.437369830407617
621,726,8192,2.4615384615384617
622,727,8192,2.4615384615384617
623,728,8192,2.392523364485981
624,729,8192,2.4150943396226414
625,730,8192,2.4854368932038833
626,731,8192,2.4854368932038833
627,732,8192,2.4158065467413743
628,733,8192,2.392523364485981
629,734,8192,2.4854368932038833
630,735,8192,2.510573092246399
631,736,8192,2.4854368932038833
632,737,8192,2.4854368932038833
633,738,8192,2.392523364485981
