idx,og Index,data (B),bandwidth (GB/s)
0,0,8192,1.1377777777777778
1,1,8192,1.2610837438423645
2,2,8192,1.299492385786802
3,3,8192,1.2927252643206564
4,4,8192,1.292929292929293
5,5,8192,1.3195876288659794
6,6,8192,1.299492385786802
7,7,8192,1.299492385786802
8,8,8192,1.3128205128205128
9,9,8192,1.2798000312451179
10,10,8192,1.3061224489795917
11,11,8192,1.2927252643206564
12,12,8192,1.3128205128205128
13,13,8192,1.299492385786802
14,14,8192,1.312610158628425
15,15,8192,1.28
16,16,8192,1.292929292929293
17,17,8192,1.3059142356129443
18,18,8192,1.299492385786802
19,19,8192,1.299492385786802
20,20,8192,1.299492385786802
21,21,8192,1.3264248704663213
22,22,8192,1.292929292929293
23,23,8192,1.2864321608040201
24,24,8192,1.2927252643206564
25,25,8192,1.299492385786802
26,26,8192,1.299492385786802
27,27,8192,1.2736318407960199
28,32,8192,1.147982062780269
29,33,8192,1.2931333859510654
30,34,8192,1.3195876288659794
31,35,8192,1.3061224489795917
32,36,8192,1.2992862807295797
33,37,8192,1.3264248704663213
34,38,8192,1.2673267326732673
35,39,8192,1.3061224489795917
36,40,8192,1.299492385786802
37,41,8192,1.3128205128205128
38,42,8192,1.3195876288659794
39,43,8192,1.3333333333333333
40,44,8192,1.3061224489795917
41,45,8192,1.28
42,46,8192,1.312610158628425
43,47,8192,1.3195876288659794
44,48,8192,1.3061224489795917
45,49,8192,1.3195876288659794
46,50,8192,1.299492385786802
47,51,8192,1.3128205128205128
48,52,8192,1.3128205128205128
49,53,8192,1.3264248704663213
50,54,8192,1.3061224489795917
51,55,8192,1.3128205128205128
52,56,8192,1.3128205128205128
53,57,8192,1.3264248704663213
54,58,8192,1.292929292929293
55,59,8192,1.3128205128205128
56,64,8192,1.1327433628318584
57,65,8192,1.3128205128205128
58,66,8192,1.3333333333333333
59,67,8192,1.2992862807295797
60,68,8192,1.3128205128205128
61,69,8192,1.3195876288659794
62,70,8192,1.299492385786802
63,71,8192,1.3264248704663213
64,72,8192,1.3059142356129443
65,73,8192,1.3264248704663213
66,74,8192,1.3061224489795917
67,75,8192,1.3333333333333333
68,76,8192,1.3061224489795917
69,77,8192,1.3061224489795917
70,78,8192,1.299492385786802
71,79,8192,1.2547097564711287
72,80,8192,1.2736318407960199
73,81,8192,1.3128205128205128
74,82,8192,1.3061224489795917
75,83,8192,1.3193751006603318
76,84,8192,1.3061224489795917
77,85,8192,1.299492385786802
78,86,8192,1.3195876288659794
79,87,8192,1.299492385786802
80,88,8192,1.292929292929293
81,89,8192,1.2992862807295797
82,90,8192,1.3195876288659794
83,91,8192,1.292929292929293
84,96,8192,1.1428571428571428
85,97,8192,1.2736318407960199
86,98,8192,1.3266396761133603
87,99,8192,1.3195876288659794
88,100,8192,1.3195876288659794
89,101,8192,1.3195876288659794
90,102,8192,1.3264248704663213
91,103,8192,1.3128205128205128
92,104,8192,1.3195876288659794
93,105,8192,1.3061224489795917
94,106,8192,1.3264248704663213
95,107,8192,1.299492385786802
96,108,8192,1.3266396761133603
97,109,8192,1.3128205128205128
98,110,8192,1.3264248704663213
99,111,8192,1.3059142356129443
100,112,8192,1.3264248704663213
101,113,8192,1.3264248704663213
102,114,8192,1.3195876288659794
103,115,8192,1.292929292929293
104,116,8192,1.3264248704663213
105,117,8192,1.3128205128205128
106,118,8192,1.3195876288659794
107,119,8192,1.3333333333333333
108,120,8192,1.3193751006603318
109,121,8192,1.3128205128205128
110,122,8192,1.299492385786802
111,123,8192,1.3195876288659794
112,128,8192,1.1327433628318584
113,129,8192,1.312610158628425
114,130,8192,1.326210134369435
115,131,8192,1.3128205128205128
116,132,8192,1.3061224489795917
117,133,8192,1.312610158628425
118,134,8192,1.3195876288659794
119,135,8192,1.3333333333333333
120,136,8192,1.3061224489795917
121,137,8192,1.3264248704663213
122,138,8192,1.2864321608040201
123,139,8192,1.3264248704663213
124,140,8192,1.3333333333333333
125,141,8192,1.3195876288659794
126,142,8192,1.3195876288659794
127,143,8192,1.3061224489795917
128,144,8192,1.3333333333333333
129,145,8192,1.3195876288659794
130,146,8192,1.2075471698113207
131,147,8192,1.2610837438423645
132,148,8192,1.0199203187250996
133,149,8192,1.312610158628425
134,150,8192,1.3128205128205128
135,151,8192,1.312610158628425
136,152,8192,0.8448844884488449
137,153,8192,1.2736318407960199
138,154,8192,1.3128205128205128
139,155,8192,1.3195876288659794
140,160,8192,1.158371040723982
141,161,8192,1.3128205128205128
142,162,8192,1.3128205128205128
143,163,8192,1.3061224489795917
144,164,8192,1.299492385786802
145,165,8192,1.2673267326732673
146,166,8192,1.3061224489795917
147,167,8192,1.2864321608040201
148,168,8192,1.3333333333333333
149,169,8192,1.28
150,170,8192,1.3195876288659794
151,171,8192,1.3061224489795917
152,172,8192,1.3195876288659794
153,173,8192,1.3061224489795917
154,174,8192,1.3061224489795917
155,175,8192,0.7876923076923077
156,176,8192,1.3264248704663213
157,177,8192,1.1327433628318584
158,178,8192,1.3264248704663213
159,179,8192,1.3061224489795917
160,180,8192,1.3061224489795917
161,181,8192,1.3264248704663213
162,182,8192,1.326210134369435
163,183,8192,1.3195876288659794
164,184,8192,1.2018779342723005
165,185,8192,1.3331163547599674
166,186,8192,1.3128205128205128
167,187,8192,1.3195876288659794
168,192,8192,1.0985651066112379
169,193,8192,1.3264248704663213
170,194,8192,1.3264248704663213
171,195,8192,0.7463556851311953
172,196,8192,1.248780487804878
173,197,8192,1.2248803827751196
174,198,8192,1.3195876288659794
175,199,8192,1.292929292929293
176,200,8192,1.299492385786802
177,201,8192,1.326210134369435
178,202,8192,1.3195876288659794
179,203,8192,1.2190476190476192
180,204,8192,1.299492385786802
181,205,8192,1.3195876288659794
182,206,8192,1.2673267326732673
183,207,8192,1.2864321608040201
184,208,8192,1.3061224489795917
185,209,8192,1.2736318407960199
186,210,8192,1.3264248704663213
187,211,8192,1.3837837837837839
188,212,8192,1.299492385786802
189,213,8192,1.292929292929293
190,214,8192,1.0281124497991967
191,215,8192,1.3061224489795917
192,216,8192,1.1797235023041475
193,217,8192,1.3128205128205128
194,218,8192,1.299492385786802
195,219,8192,1.2075471698113207
196,224,8192,1.158371040723982
197,225,8192,1.3128205128205128
198,226,8192,1.3195876288659794
199,227,8192,1.3128205128205128
200,228,8192,1.3195876288659794
201,229,8192,1.3195876288659794
202,230,8192,1.3128205128205128
203,231,8192,1.0199203187250996
204,232,8192,1.3195876288659794
205,233,8192,1.2736318407960199
206,234,8192,1.3128205128205128
207,235,8192,1.3264248704663213
208,236,8192,1.3195876288659794
209,237,8192,1.3061224489795917
210,238,8192,1.299492385786802
211,239,8192,0.9624060150375939
212,240,8192,1.28
213,241,8192,1.248780487804878
214,242,8192,1.3195876288659794
215,243,8192,1.326210134369435
216,244,8192,1.3195876288659794
217,245,8192,0.759573481687529
218,246,8192,1.3061224489795917
219,247,8192,1.326210134369435
220,248,8192,1.3195876288659794
221,249,8192,1.3333333333333333
222,250,8192,1.2864321608040201
223,251,8192,1.3128205128205128
224,256,8192,1.1689497716894977
225,257,8192,1.326210134369435
226,258,8192,1.299492385786802
227,259,8192,1.3264248704663213
228,260,8192,1.3195876288659794
229,261,8192,1.3195876288659794
230,262,8192,1.1177513985536909
231,263,8192,1.3061224489795917
232,264,8192,1.3063307287513952
233,265,8192,1.3333333333333333
234,266,8192,1.1962616822429906
235,267,8192,1.3195876288659794
236,268,8192,1.2864321608040201
237,269,8192,1.3264248704663213
238,270,8192,1.3264248704663213
239,271,8192,1.292929292929293
240,272,8192,1.3195876288659794
241,273,8192,1.0406504065040652
242,274,8192,1.3195876288659794
243,275,8192,0.9922480620155039
244,276,8192,1.3061224489795917
245,277,8192,1.299492385786802
246,278,8192,1.3195876288659794
247,279,8192,1.3059142356129443
248,280,8192,1.3128205128205128
249,281,8192,1.3264248704663213
250,282,8192,0.7950310559006211
251,283,8192,1.248780487804878
252,288,8192,1.1531531531531531
253,289,8192,1.3195876288659794
254,290,8192,1.3128205128205128
255,291,8192,1.3063307287513952
256,292,8192,1.299492385786802
257,293,8192,1.3128205128205128
258,294,8192,1.2549019607843137
259,295,8192,0.8049523435197012
260,296,8192,1.3264248704663213
261,297,8192,1.3128205128205128
262,298,8192,1.3128205128205128
263,299,8192,1.312610158628425
264,300,8192,1.3193751006603318
265,301,8192,1.3128205128205128
266,302,8192,1.3195876288659794
267,303,8192,1.2864321608040201
268,304,8192,1.1851851851851851
269,305,8192,1.2864321608040201
270,306,8192,1.0666666666666667
271,307,8192,1.0756302521008403
272,308,8192,1.3333333333333333
273,309,8192,1.292929292929293
274,310,8192,1.299492385786802
275,311,8192,1.3264248704663213
276,312,8192,1.3193751006603318
277,313,8192,1.032258064516129
278,314,8192,1.3837837837837839
279,315,8192,1.3264248704663213
280,320,8192,1.158371040723982
281,321,8192,1.3128205128205128
282,322,8192,1.3128205128205128
283,323,8192,1.3195876288659794
284,324,8192,1.3195876288659794
285,325,8192,1.3264248704663213
286,326,8192,1.3195876288659794
287,327,8192,1.2866342076331083
288,328,8192,1.2427184466019416
289,329,8192,1.3195876288659794
290,330,8192,1.3333333333333333
291,331,8192,1.3264248704663213
292,332,8192,1.3195876288659794
293,333,8192,1.3059142356129443
294,334,8192,1.3195876288659794
295,335,8192,1.3198002255517964
296,336,8192,1.3128205128205128
297,337,8192,1.3195876288659794
298,338,8192,1.2864321608040201
299,339,8192,1.3195876288659794
300,340,8192,1.3195876288659794
301,341,8192,1.3331163547599674
302,342,8192,1.3403141361256545
303,343,8192,1.3195876288659794
304,344,8192,1.3128205128205128
305,345,8192,1.2075471698113207
306,346,8192,1.3061224489795917
307,347,8192,1.0940170940170941
308,352,8192,1.158371040723982
309,353,8192,1.2864321608040201
310,354,8192,1.3195876288659794
311,355,8192,1.2864321608040201
312,356,8192,1.28
313,357,8192,1.3195876288659794
314,358,8192,1.3264248704663213
315,359,8192,1.3195876288659794
316,360,8192,1.2549019607843137
317,361,8192,1.3061224489795917
318,362,8192,1.3195876288659794
319,363,8192,1.1327433628318584
320,364,8192,1.3061224489795917
321,365,8192,1.1428571428571428
322,366,8192,1.3195876288659794
323,367,8192,1.2367149758454106
324,368,8192,1.3128205128205128
325,369,8192,1.3195876288659794
326,370,8192,1.3195876288659794
327,371,8192,1.326210134369435
328,372,8192,1.2736318407960199
329,373,8192,1.2367149758454106
330,374,8192,1.3264248704663213
331,375,8192,1.3128205128205128
332,376,8192,1.3059142356129443
333,377,8192,1.3128205128205128
334,378,8192,1.28
335,379,8192,1.3195876288659794
336,384,8192,1.158371040723982
337,385,8192,1.3195876288659794
338,386,8192,1.3061224489795917
339,387,8192,1.3128205128205128
340,388,8192,1.3061224489795917
341,389,8192,1.3264248704663213
342,390,8192,1.2673267326732673
343,391,8192,1.3195876288659794
344,392,8192,1.062240663900415
345,393,8192,1.326210134369435
346,394,8192,1.3193751006603318
347,395,8192,1.3333333333333333
348,396,8192,1.2736318407960199
349,397,8192,1.1277533039647578
350,398,8192,1.0940170940170941
351,399,8192,1.2864321608040201
352,400,8192,1.3333333333333333
353,401,8192,1.3264248704663213
354,402,8192,1.0666666666666667
355,403,8192,1.28
356,404,8192,1.3128205128205128
357,405,8192,1.2367149758454106
358,406,8192,1.3195876288659794
359,407,8192,1.3195876288659794
360,408,8192,1.1082251082251082
361,409,8192,1.2671307037896364
362,410,8192,1.3264248704663213
363,411,8192,1.3333333333333333
364,416,8192,1.147982062780269
365,417,8192,1.3195876288659794
366,418,8192,1.3195876288659794
367,419,8192,1.3128205128205128
368,420,8192,1.3059142356129443
369,421,8192,1.1797235023041475
370,422,8192,1.1851851851851851
371,423,8192,1.0940170940170941
372,424,8192,1.3266396761133603
373,425,8192,1.2018779342723005
374,426,8192,1.3264248704663213
375,427,8192,1.3061224489795917
376,428,8192,1.3128205128205128
377,429,8192,1.3195876288659794
378,430,8192,1.248780487804878
379,431,8192,1.3333333333333333
380,432,8192,1.3193751006603318
381,433,8192,1.0756302521008403
382,434,8192,1.3128205128205128
383,435,8192,1.3061224489795917
384,436,8192,1.190524633047522
385,437,8192,1.3195876288659794
386,438,8192,1.3128205128205128
387,439,8192,1.3264248704663213
388,440,8192,1.3195876288659794
389,441,8192,0.8311688311688312
390,442,8192,0.8
391,443,8192,1.2073691967575535
392,448,8192,0.8504983388704319
393,449,8192,0.9175627240143369
394,450,8192,1.2190476190476192
395,451,8192,1.2020542920029347
396,452,8192,1.292929292929293
397,453,8192,1.1689497716894977
398,454,8192,1.2427184466019416
399,455,8192,1.3264248704663213
400,456,8192,1.3059142356129443
401,457,8192,1.326210134369435
402,460,8192,1.3195876288659794
403,461,8192,1.3193751006603318
404,462,8192,1.3195876288659794
405,463,8192,1.292929292929293
406,464,8192,1.2864321608040201
407,465,8192,1.3063307287513952
408,470,8192,1.3333333333333333
409,471,8192,1.3128205128205128
410,472,8192,1.3195876288659794
411,473,8192,1.3061224489795917
412,474,8192,1.3264248704663213
413,475,8192,1.3333333333333333
414,476,8192,1.3264248704663213
415,477,8192,1.299492385786802
416,478,8192,1.3128205128205128
417,479,8192,1.3063307287513952
418,480,8192,1.3264248704663213
419,481,8192,1.326210134369435
420,482,8192,1.292929292929293
421,483,8192,1.3128205128205128
422,484,8192,1.3061224489795917
423,485,8192,1.292929292929293
424,486,8192,1.3195876288659794
425,487,8192,1.2673267326732673
426,488,8192,1.3195876288659794
427,489,8192,1.3193751006603318
428,490,8192,1.28
429,491,8192,1.3128205128205128
430,492,8192,1.299492385786802
431,493,8192,1.2736318407960199
432,494,8192,1.3193751006603318
433,495,8192,1.3061224489795917
434,496,8192,1.2248803827751196
435,497,8192,1.1179039301310043
436,502,8192,1.3061224489795917
437,503,8192,1.292929292929293
438,504,8192,1.292929292929293
439,505,8192,1.3061224489795917
440,506,8192,1.3128205128205128
441,507,8192,1.3333333333333333
442,508,8192,1.3061224489795917
443,509,8192,1.3128205128205128
444,510,8192,1.3195876288659794
445,511,8192,1.326210134369435
446,512,8192,1.3128205128205128
447,513,8192,1.312610158628425
448,514,8192,1.3193751006603318
449,515,8192,1.3333333333333333
450,516,8192,1.326210134369435
451,517,8192,1.3195876288659794
452,518,8192,1.3128205128205128
453,519,8192,1.2862301774218872
454,520,8192,1.3128205128205128
455,521,8192,1.2673267326732673
456,522,8192,1.2864321608040201
457,523,8192,1.3061224489795917
458,524,8192,1.3195876288659794
459,525,8192,1.3195876288659794
460,526,8192,1.3195876288659794
461,527,8192,1.3128205128205128
462,528,8192,1.3264248704663213
463,529,8192,1.3264248704663213
464,534,8192,1.2798000312451179
465,535,8192,1.292929292929293
466,536,8192,1.2864321608040201
467,537,8192,1.312610158628425
468,538,8192,1.2862301774218872
469,539,8192,1.3333333333333333
470,540,8192,1.3061224489795917
471,541,8192,1.3059142356129443
472,542,8192,1.3195876288659794
473,543,8192,1.3195876288659794
474,544,8192,1.299492385786802
475,545,8192,1.3195876288659794
476,546,8192,1.3264248704663213
477,547,8192,1.3061224489795917
478,548,8192,1.3128205128205128
479,549,8192,1.2798000312451179
480,550,8192,1.3193751006603318
481,551,8192,1.3061224489795917
482,552,8192,1.2734338566765118
483,553,8192,1.3128205128205128
484,554,8192,1.3198002255517964
485,555,8192,1.3061224489795917
486,556,8192,1.3128205128205128
487,557,8192,1.3195876288659794
488,558,8192,1.3195876288659794
489,559,8192,1.292929292929293
490,560,8192,1.3128205128205128
491,561,8192,1.3195876288659794
492,566,8192,1.3063307287513952
493,567,8192,1.292929292929293
494,568,8192,1.3264248704663213
495,569,8192,1.3128205128205128
496,570,8192,1.3195876288659794
497,571,8192,1.3264248704663213
498,572,8192,1.2673267326732673
499,573,8192,1.3128205128205128
500,574,8192,1.3128205128205128
501,575,8192,1.3264248704663213
502,576,8192,1.2367149758454106
503,577,8192,1.3128205128205128
504,578,8192,1.3264248704663213
505,579,8192,1.292929292929293
506,580,8192,1.3195876288659794
507,581,8192,1.312610158628425
508,582,8192,1.3264248704663213
509,583,8192,1.3195876288659794
510,584,8192,1.3128205128205128
511,585,8192,1.3128205128205128
512,586,8192,1.3264248704663213
513,587,8192,1.3195876288659794
514,588,8192,1.3061224489795917
515,589,8192,1.312610158628425
516,590,8192,1.3195876288659794
517,591,8192,1.3195876288659794
518,592,8192,1.3061224489795917
519,593,8192,1.3061224489795917
520,598,8192,1.2864321608040201
521,599,8192,1.3128205128205128
522,600,8192,1.3061224489795917
523,601,8192,1.326210134369435
524,602,8192,1.299492385786802
525,603,8192,1.3333333333333333
526,604,8192,1.299492385786802
527,605,8192,1.3128205128205128
528,606,8192,1.3059142356129443
529,607,8192,1.3128205128205128
530,608,8192,1.3195876288659794
531,609,8192,1.3128205128205128
532,610,8192,1.3195876288659794
533,611,8192,1.3128205128205128
534,612,8192,1.3264248704663213
535,613,8192,1.3195876288659794
536,614,8192,1.3195876288659794
537,615,8192,1.3264248704663213
538,616,8192,1.3128205128205128
539,617,8192,1.3061224489795917
540,618,8192,1.3195876288659794
541,619,8192,1.3264248704663213
542,620,8192,1.3128205128205128
543,621,8192,1.3264248704663213
544,622,8192,1.0893617021276596
545,623,8192,1.3195876288659794
546,624,8192,1.299492385786802
547,625,8192,1.3128205128205128
548,630,8192,1.2864321608040201
549,631,8192,1.3128205128205128
550,632,8192,1.3403141361256545
551,633,8192,1.1962616822429906
552,634,8192,1.3264248704663213
553,635,8192,1.3195876288659794
554,636,8192,1.3061224489795917
555,637,8192,1.3128205128205128
556,638,8192,1.299492385786802
557,639,8192,1.3195876288659794
558,640,8192,1.3473684210526315
559,641,8192,1.3195876288659794
560,642,8192,1.3195876288659794
561,643,8192,1.3195876288659794
562,646,8192,1.3128205128205128
563,647,8192,1.3264248704663213
564,648,8192,1.3193751006603318
565,649,8192,1.3061224489795917
566,650,8192,1.2864321608040201
567,651,8192,1.326210134369435
568,652,8192,1.3264248704663213
569,653,8192,1.3128205128205128
570,654,8192,1.3195876288659794
571,655,8192,1.3264248704663213
572,656,8192,1.2864321608040201
573,657,8192,1.3061224489795917
574,662,8192,1.2864321608040201
575,663,8192,1.292929292929293
576,664,8192,1.3333333333333333
577,665,8192,1.3061224489795917
578,666,8192,1.3195876288659794
579,667,8192,1.3333333333333333
580,668,8192,1.326210134369435
581,669,8192,1.28
582,670,8192,1.3195876288659794
583,671,8192,1.326210134369435
584,672,8192,1.3195876288659794
585,673,8192,1.292929292929293
586,674,8192,1.3195876288659794
587,675,8192,1.3128205128205128
588,676,8192,1.3128205128205128
589,677,8192,1.3195876288659794
590,678,8192,1.2927252643206564
591,679,8192,1.3061224489795917
592,680,8192,1.3195876288659794
593,682,8192,1.3128205128205128
594,683,8192,1.3264248704663213
595,684,8192,1.3195876288659794
596,685,8192,1.312610158628425
597,686,8192,1.3195876288659794
598,687,8192,1.3264248704663213
599,688,8192,1.3061224489795917
600,689,8192,1.3195876288659794
601,694,8192,1.3061224489795917
602,695,8192,1.2992862807295797
603,696,8192,1.3264248704663213
604,697,8192,1.3195876288659794
605,698,8192,1.28
606,699,8192,1.3264248704663213
607,700,8192,1.3061224489795917
608,701,8192,1.2736318407960199
609,702,8192,1.3061224489795917
610,703,8192,1.3061224489795917
611,704,8192,1.3061224489795917
612,705,8192,1.3128205128205128
613,706,8192,1.3061224489795917
614,707,8192,1.3195876288659794
615,708,8192,1.2866342076331083
616,709,8192,1.299492385786802
617,710,8192,1.3061224489795917
618,711,8192,1.28
619,712,8192,1.3061224489795917
620,713,8192,1.3195876288659794
621,714,8192,1.3061224489795917
622,715,8192,1.3195876288659794
623,716,8192,1.299492385786802
624,717,8192,1.3264248704663213
625,718,8192,1.3061224489795917
626,719,8192,1.3128205128205128
627,720,8192,1.3128205128205128
628,721,8192,1.3128205128205128
629,726,8192,1.312610158628425
630,727,8192,1.3128205128205128
631,728,8192,1.3689839572192513
632,729,8192,1.2864321608040201
633,730,8192,1.3193751006603318
634,731,8192,1.3333333333333333
635,732,8192,1.28
636,733,8192,1.3403141361256545
637,734,8192,1.312610158628425
638,735,8192,1.3128205128205128
